 % time (yr) / mean (land) surface air temperature (degrees C)
       0.500    5.090041
       1.500    7.372045
       2.500    9.042096
       3.500   10.140444
       4.500   10.882315
       5.500   11.416309
       6.500   11.827408
       7.500   12.157824
       8.500   12.430542
       9.500   12.658702
      10.500   12.852685
      11.500   13.018419
      12.500   13.160341
      13.500   13.284108
      14.500   13.393224
      15.500   13.491687
      16.500   13.572059
      17.500   13.636979
      18.500   13.682896
      19.500   13.720653
      21.500   13.798231
      23.500   13.886347
      25.500   13.975118
      27.500   14.062939
      29.500   14.147620
      31.500   14.229865
      33.500   14.307904
      35.500   14.383158
      37.500   14.457464
      39.500   14.523332
      41.500   14.573630
      43.500   14.620621
      45.500   14.667083
      47.500   14.710470
      49.500   14.746052
      51.500   14.774447
      53.500   14.802424
      55.500   14.830654
      57.500   14.857180
      59.500   14.881582
      61.500   14.908711
      63.500   14.940080
      65.500   14.962942
      67.500   14.980563
      69.500   14.996416
      71.500   15.016298
      73.500   15.039282
      75.500   15.050400
      77.500   15.058409
      79.500   15.063980
      81.500   15.067100
      83.500   15.068953
      85.500   15.069043
      87.500   15.067632
      89.500   15.063946
      91.500   15.058701
      93.500   15.054479
      95.500   15.050203
      97.500   15.045279
      99.500   15.039917
