 % time (yr) / global pCO2 flux (mol yr-1)  NOTE: is the instantaneous atmospheric forcing flux.
       0.500 -0.2512614E+17
       1.500 -0.1825316E+17
       2.500 -0.1458075E+17
       3.500 -0.1214940E+17
       4.500 -0.1014769E+17
       5.500 -0.8682583E+16
       6.500 -0.7769496E+16
       7.500 -0.7032835E+16
       8.500 -0.6418844E+16
       9.500 -0.5888106E+16
      10.500 -0.5424868E+16
      11.500 -0.5012807E+16
      12.500 -0.4634995E+16
      13.500 -0.4285943E+16
      14.500 -0.3965944E+16
      15.500 -0.3687171E+16
      16.500 -0.3428123E+16
      17.500 -0.3223680E+16
      18.500 -0.3050032E+16
      19.500 -0.2894090E+16
      21.500 -0.2685939E+16
      23.500 -0.2532793E+16
      25.500 -0.2418054E+16
      27.500 -0.2332820E+16
      29.500 -0.2258196E+16
      31.500 -0.2187237E+16
      33.500 -0.2123167E+16
      35.500 -0.2064809E+16
      37.500 -0.2011995E+16
      39.500 -0.1968780E+16
      41.500 -0.1917088E+16
      43.500 -0.1875716E+16
      45.500 -0.1846242E+16
      47.500 -0.1811713E+16
      49.500 -0.1783330E+16
      51.500 -0.1756852E+16
      53.500 -0.1733368E+16
      55.500 -0.1717016E+16
      57.500 -0.1701165E+16
      59.500 -0.1690262E+16
      61.500 -0.1683835E+16
      63.500 -0.1684503E+16
      65.500 -0.1677119E+16
      67.500 -0.1668565E+16
      69.500 -0.1660086E+16
      71.500 -0.1654153E+16
      73.500 -0.1662331E+16
      75.500 -0.1659231E+16
      77.500 -0.1653244E+16
      79.500 -0.1646650E+16
      81.500 -0.1643334E+16
      83.500 -0.1641274E+16
      85.500 -0.1638488E+16
      87.500 -0.1636403E+16
      89.500 -0.1635338E+16
      91.500 -0.1636032E+16
      93.500 -0.1636126E+16
      95.500 -0.1635648E+16
      97.500 -0.1634192E+16
      99.500 -0.1630979E+16
