 % time (yr) / surface air temperature (degrees C)
       0.500    2.795356
       1.500    5.303001
       2.500    7.007344
       3.500    8.113577
       4.500    8.897917
       5.500    9.514020
       6.500   10.025363
       7.500   10.458491
       8.500   10.828872
       9.500   11.146004
      10.500   11.419047
      11.500   11.654756
      12.500   11.857717
      13.500   12.034880
      14.500   12.190983
      15.500   12.330069
      16.500   12.449628
      17.500   12.552652
      18.500   12.639507
      19.500   12.715386
      21.500   12.855283
      23.500   12.985237
      25.500   13.105628
      27.500   13.217070
      29.500   13.319778
      31.500   13.415161
      33.500   13.502902
      35.500   13.584494
      37.500   13.662872
      39.500   13.731943
      41.500   13.786811
      43.500   13.836695
      45.500   13.886407
      47.500   13.933891
      49.500   13.973949
      51.500   14.008215
      53.500   14.041242
      55.500   14.074672
      57.500   14.106047
      59.500   14.135784
      61.500   14.167516
      63.500   14.202522
      65.500   14.230665
      67.500   14.253771
      69.500   14.275932
      71.500   14.301370
      73.500   14.328411
      75.500   14.346273
      77.500   14.361643
      79.500   14.374708
      81.500   14.385803
      83.500   14.395958
      85.500   14.403881
      87.500   14.410280
      89.500   14.414814
      91.500   14.418899
      93.500   14.423516
      95.500   14.427521
      97.500   14.431050
      99.500   14.433548
