 % time (yr) / global ALK flux (mol yr-1) / global ALK density (mol m-2 yr-1)
       0.500  0.0000000E+00  0.0000000E+00
       1.500 -0.2322174E+14 -0.5855319E-01
       2.500 -0.5504191E+14 -0.1387871E+00
       3.500 -0.7294277E+14 -0.1839238E+00
       4.500 -0.8565369E+14 -0.2159742E+00
       5.500 -0.9519701E+14 -0.2400375E+00
       6.500 -0.1025050E+15 -0.2584645E+00
       7.500 -0.1083114E+15 -0.2731051E+00
       8.500 -0.1130559E+15 -0.2850682E+00
       9.500 -0.1169889E+15 -0.2949853E+00
      10.500 -0.1202732E+15 -0.3032666E+00
      11.500 -0.1230296E+15 -0.3102168E+00
      12.500 -0.1253487E+15 -0.3160643E+00
      13.500 -0.1273041E+15 -0.3209949E+00
      14.500 -0.1289778E+15 -0.3252152E+00
      15.500 -0.1304102E+15 -0.3288269E+00
      16.500 -0.1316677E+15 -0.3319975E+00
      17.500 -0.1327647E+15 -0.3347637E+00
      18.500 -0.1336982E+15 -0.3371176E+00
      19.500 -0.1344929E+15 -0.3391212E+00
      21.500 -0.1357390E+15 -0.3422634E+00
      23.500 -0.1367466E+15 -0.3448040E+00
      25.500 -0.1376711E+15 -0.3471350E+00
      27.500 -0.1384972E+15 -0.3492182E+00
      29.500 -0.1392515E+15 -0.3511200E+00
      31.500 -0.1399662E+15 -0.3529222E+00
      33.500 -0.1406174E+15 -0.3545642E+00
      35.500 -0.1412239E+15 -0.3560934E+00
      37.500 -0.1417819E+15 -0.3575004E+00
      39.500 -0.1414146E+15 -0.3565742E+00
      41.500 -0.1409780E+15 -0.3554735E+00
      43.500 -0.1412947E+15 -0.3562720E+00
      45.500 -0.1415322E+15 -0.3568709E+00
      47.500 -0.1417327E+15 -0.3573764E+00
      49.500 -0.1418657E+15 -0.3577118E+00
      51.500 -0.1419413E+15 -0.3579022E+00
      53.500 -0.1419692E+15 -0.3579727E+00
      55.500 -0.1419779E+15 -0.3579946E+00
      57.500 -0.1419685E+15 -0.3579709E+00
      59.500 -0.1419440E+15 -0.3579091E+00
      61.500 -0.1419133E+15 -0.3578316E+00
      63.500 -0.1419029E+15 -0.3578054E+00
      65.500 -0.1419071E+15 -0.3578161E+00
      67.500 -0.1418819E+15 -0.3577526E+00
      69.500 -0.1418247E+15 -0.3576083E+00
      71.500 -0.1417560E+15 -0.3574350E+00
      73.500 -0.1417008E+15 -0.3572958E+00
      75.500 -0.1416552E+15 -0.3571809E+00
      77.500 -0.1415818E+15 -0.3569959E+00
      79.500 -0.1414850E+15 -0.3567517E+00
      81.500 -0.1413673E+15 -0.3564550E+00
      83.500 -0.1412299E+15 -0.3561086E+00
      85.500 -0.1410775E+15 -0.3557244E+00
      87.500 -0.1409087E+15 -0.3552986E+00
      89.500 -0.1407210E+15 -0.3548254E+00
      91.500 -0.1405210E+15 -0.3543210E+00
      93.500 -0.1403123E+15 -0.3537948E+00
      95.500 -0.1401039E+15 -0.3532693E+00
      97.500 -0.1398953E+15 -0.3527433E+00
      99.500 -0.1396877E+15 -0.3522199E+00
