 % time (yr) / global pCO2_13C sea->air transfer flux (mol yr-1) / global pCO2_13C (o/oo)
       0.500  0.3069856E+15       -16.714
       1.500  0.1900633E+15       -18.250
       2.500  0.1526553E+15       -18.685
       3.500  0.1294097E+15       -19.102
       4.500  0.1079987E+15       -19.793
       5.500  0.9240759E+14       -20.338
       6.500  0.8317639E+14       -20.559
       7.500  0.7531741E+14       -20.836
       8.500  0.6882723E+14       -21.124
       9.500  0.6315280E+14       -21.466
      10.500  0.5815440E+14       -21.857
      11.500  0.5372959E+14       -22.282
      12.500  0.4968428E+14       -22.760
      13.500  0.4590062E+14       -23.299
      14.500  0.4246858E+14       -23.857
      15.500  0.3946259E+14       -24.408
      16.500  0.3666835E+14       -24.991
      17.500  0.3451971E+14       -25.445
      18.500  0.3265304E+14       -25.865
      19.500  0.3102498E+14       -26.269
      21.500  0.2882665E+14       -26.773
      23.500  0.2719272E+14       -27.186
      25.500  0.2598045E+14       -27.461
      27.500  0.2507465E+14       -27.642
      29.500  0.2426238E+14       -27.818
      31.500  0.2350807E+14       -28.009
      33.500  0.2281095E+14       -28.180
      35.500  0.2218514E+14       -28.348
      37.500  0.2162925E+14       -28.509
      39.500  0.2115494E+14       -28.624
      41.500  0.2059196E+14       -28.804
      43.500  0.2015333E+14       -28.971
      45.500  0.1983879E+14       -29.045
      47.500  0.1946700E+14       -29.172
      49.500  0.1916552E+14       -29.266
      51.500  0.1888564E+14       -29.325
      53.500  0.1862481E+14       -29.388
      55.500  0.1845269E+14       -29.404
      57.500  0.1828343E+14       -29.425
      59.500  0.1816910E+14       -29.410
      61.500  0.1810230E+14       -29.363
      63.500  0.1811547E+14       -29.240
      65.500  0.1803314E+14       -29.191
      67.500  0.1794563E+14       -29.189
      69.500  0.1785108E+14       -29.171
      71.500  0.1779659E+14       -29.170
      73.500  0.1788789E+14       -29.004
      75.500  0.1785232E+14       -28.930
      77.500  0.1778462E+14       -28.894
      79.500  0.1771517E+14       -28.869
      81.500  0.1768396E+14       -28.804
      83.500  0.1766188E+14       -28.740
      85.500  0.1763182E+14       -28.695
      87.500  0.1761068E+14       -28.649
      89.500  0.1759931E+14       -28.597
      91.500  0.1761518E+14       -28.503
      93.500  0.1761590E+14       -28.430
      95.500  0.1760942E+14       -28.376
      97.500  0.1759364E+14       -28.319
      99.500  0.1755985E+14       -28.288
