 % time (yr) / global POC_13C flux (mol yr-1) / global POC_13C delta (o/oo)
       0.500  0.1248625E+13       -31.346
       1.500  0.1265713E+13       -30.076
       2.500  0.1209692E+13       -29.134
       3.500  0.1176578E+13       -28.369
       4.500  0.1163048E+13       -27.758
       5.500  0.1150063E+13       -27.231
       6.500  0.1136440E+13       -26.765
       7.500  0.1128603E+13       -26.381
       8.500  0.1120809E+13       -26.046
       9.500  0.1113848E+13       -25.757
      10.500  0.1106340E+13       -25.497
      11.500  0.1098154E+13       -25.265
      12.500  0.1090779E+13       -25.066
      13.500  0.1083784E+13       -24.895
      14.500  0.1078212E+13       -24.753
      15.500  0.1073789E+13       -24.632
      16.500  0.1068817E+13       -24.520
      17.500  0.1062492E+13       -24.415
      18.500  0.1055381E+13       -24.317
      19.500  0.1049400E+13       -24.236
      21.500  0.1045519E+13       -24.137
      23.500  0.1034828E+13       -24.029
      25.500  0.1025041E+13       -23.944
      27.500  0.1018324E+13       -23.880
      29.500  0.1010833E+13       -23.822
      31.500  0.1003834E+13       -23.773
      33.500  0.9966062E+12       -23.724
      35.500  0.9902969E+12       -23.685
      37.500  0.9836366E+12       -23.646
      39.500  0.9766435E+12       -23.609
      41.500  0.9700641E+12       -23.577
      43.500  0.9650844E+12       -23.558
      45.500  0.9617999E+12       -23.550
      47.500  0.9584772E+12       -23.541
      49.500  0.9548093E+12       -23.529
      51.500  0.9503237E+12       -23.513
      53.500  0.9464272E+12       -23.502
      55.500  0.9450674E+12       -23.507
      57.500  0.9484684E+12       -23.543
      59.500  0.9507092E+12       -23.567
      61.500  0.9563415E+12       -23.613
      63.500  0.9552089E+12       -23.612
      65.500  0.9528864E+12       -23.606
      67.500  0.9518591E+12       -23.606
      69.500  0.9492311E+12       -23.598
      71.500  0.9471803E+12       -23.593
      73.500  0.9445358E+12       -23.584
      75.500  0.9465616E+12       -23.601
      77.500  0.9445838E+12       -23.594
      79.500  0.9421645E+12       -23.587
      81.500  0.9398437E+12       -23.578
      83.500  0.9377041E+12       -23.571
      85.500  0.9355863E+12       -23.563
      87.500  0.9337125E+12       -23.557
      89.500  0.9320063E+12       -23.551
      91.500  0.9304967E+12       -23.546
      93.500  0.9288022E+12       -23.540
      95.500  0.9272019E+12       -23.534
      97.500  0.9256400E+12       -23.528
      99.500  0.9241379E+12       -23.523
