 % time (yr) / global CaCO3 flux (mol yr-1) / global CaCO3 density (mol m-2 yr-1)
       0.500  0.3196999E+14  0.8699854E-01
       1.500  0.4127377E+14  0.1123165E+00
       2.500  0.4504594E+14  0.1225815E+00
       3.500  0.4803740E+14  0.1307221E+00
       4.500  0.5050734E+14  0.1374434E+00
       5.500  0.5253319E+14  0.1429563E+00
       6.500  0.5420217E+14  0.1474980E+00
       7.500  0.5560647E+14  0.1513194E+00
       8.500  0.5676713E+14  0.1544779E+00
       9.500  0.5773103E+14  0.1571009E+00
      10.500  0.5851133E+14  0.1592243E+00
      11.500  0.5911062E+14  0.1608551E+00
      12.500  0.5958555E+14  0.1621475E+00
      13.500  0.5994721E+14  0.1631317E+00
      14.500  0.6018505E+14  0.1637789E+00
      15.500  0.6029381E+14  0.1640749E+00
      16.500  0.6035832E+14  0.1642504E+00
      17.500  0.6039689E+14  0.1643554E+00
      18.500  0.6034851E+14  0.1642237E+00
      19.500  0.6030160E+14  0.1640961E+00
      21.500  0.6018272E+14  0.1637726E+00
      23.500  0.5991978E+14  0.1630571E+00
      25.500  0.5963267E+14  0.1622758E+00
      27.500  0.5940602E+14  0.1616590E+00
      29.500  0.5911802E+14  0.1608753E+00
      31.500  0.5887023E+14  0.1602010E+00
      33.500  0.5860941E+14  0.1594912E+00
      35.500  0.5836965E+14  0.1588388E+00
      37.500  0.5809476E+14  0.1580907E+00
      39.500  0.5779508E+14  0.1572752E+00
      41.500  0.5750052E+14  0.1564736E+00
      43.500  0.5726910E+14  0.1558439E+00
      45.500  0.5708904E+14  0.1553539E+00
      47.500  0.5687096E+14  0.1547605E+00
      49.500  0.5665712E+14  0.1541785E+00
      51.500  0.5643250E+14  0.1535673E+00
      53.500  0.5623865E+14  0.1530398E+00
      55.500  0.5610264E+14  0.1526696E+00
      57.500  0.5598943E+14  0.1523616E+00
      59.500  0.5588200E+14  0.1520692E+00
      61.500  0.5581713E+14  0.1518927E+00
      63.500  0.5569230E+14  0.1515530E+00
      65.500  0.5553394E+14  0.1511221E+00
      67.500  0.5538587E+14  0.1507191E+00
      69.500  0.5522493E+14  0.1502812E+00
      71.500  0.5507687E+14  0.1498782E+00
      73.500  0.5493001E+14  0.1494786E+00
      75.500  0.5486082E+14  0.1492903E+00
      77.500  0.5473860E+14  0.1489577E+00
      79.500  0.5461001E+14  0.1486078E+00
      81.500  0.5448681E+14  0.1482726E+00
      83.500  0.5437291E+14  0.1479626E+00
      85.500  0.5425923E+14  0.1476532E+00
      87.500  0.5415743E+14  0.1473762E+00
      89.500  0.5406592E+14  0.1471272E+00
      91.500  0.5398703E+14  0.1469125E+00
      93.500  0.5389684E+14  0.1466671E+00
      95.500  0.5381012E+14  0.1464311E+00
      97.500  0.5372505E+14  0.1461996E+00
      99.500  0.5364287E+14  0.1459760E+00
