 % time (yr) / global CaCO3_13C flux (mol yr-1) / global CaCO3_13C delta (o/oo)
       0.500  0.3543899E+12         0.655
       1.500  0.4577393E+12         1.133
       2.500  0.4997489E+12         1.488
       3.500  0.5330809E+12         1.762
       4.500  0.5606109E+12         1.980
       5.500  0.5831994E+12         2.158
       6.500  0.6018156E+12         2.306
       7.500  0.6174832E+12         2.430
       8.500  0.6304375E+12         2.535
       9.500  0.6411996E+12         2.626
      10.500  0.6499170E+12         2.705
      11.500  0.6566189E+12         2.775
      12.500  0.6619342E+12         2.836
      13.500  0.6659863E+12         2.888
      14.500  0.6686596E+12         2.935
      15.500  0.6698963E+12         2.978
      16.500  0.6706378E+12         3.016
      17.500  0.6710872E+12         3.047
      18.500  0.6705688E+12         3.076
      19.500  0.6700633E+12         3.100
      21.500  0.6687664E+12         3.137
      23.500  0.6658639E+12         3.166
      25.500  0.6626878E+12         3.188
      27.500  0.6601796E+12         3.204
      29.500  0.6569880E+12         3.218
      31.500  0.6542405E+12         3.228
      33.500  0.6513477E+12         3.237
      35.500  0.6486872E+12         3.243
      37.500  0.6456361E+12         3.249
      39.500  0.6423091E+12         3.255
      41.500  0.6390380E+12         3.259
      43.500  0.6364663E+12         3.259
      45.500  0.6344642E+12         3.257
      47.500  0.6320404E+12         3.257
      49.500  0.6296636E+12         3.257
      51.500  0.6271671E+12         3.256
      53.500  0.6250117E+12         3.255
      55.500  0.6234979E+12         3.251
      57.500  0.6222371E+12         3.247
      59.500  0.6210408E+12         3.243
      61.500  0.6203165E+12         3.238
      63.500  0.6189276E+12         3.235
      65.500  0.6171667E+12         3.233
      67.500  0.6155201E+12         3.232
      69.500  0.6137307E+12         3.230
      71.500  0.6120842E+12         3.228
      73.500  0.6104512E+12         3.227
      75.500  0.6096799E+12         3.223
      77.500  0.6083207E+12         3.221
      79.500  0.6068908E+12         3.220
      81.500  0.6055209E+12         3.219
      83.500  0.6042541E+12         3.217
      85.500  0.6029899E+12         3.216
      87.500  0.6018576E+12         3.214
      89.500  0.6008395E+12         3.212
      91.500  0.5999617E+12         3.210
      93.500  0.5989587E+12         3.209
      95.500  0.5979941E+12         3.207
      97.500  0.5970480E+12         3.206
      99.500  0.5961339E+12         3.205
