 % time (yr) / global pCO2 sea->air transfer flux (mol yr-1) / global pCO2 density (mol m-2 yr-1)
       0.500  0.2427398E+16       6.606
       1.500  0.1724673E+16       4.693
       2.500  0.1399313E+16       3.808
       3.500  0.1152997E+16       3.138
       4.500  0.9800338E+15       2.667
       5.500  0.8460645E+15       2.302
       6.500  0.7380838E+15       2.009
       7.500  0.6523408E+15       1.775
       8.500  0.5729202E+15       1.559
       9.500  0.5044505E+15       1.373
      10.500  0.4434224E+15       1.207
      11.500  0.3886354E+15       1.058
      12.500  0.3463983E+15       0.943
      13.500  0.3115833E+15       0.848
      14.500  0.2796979E+15       0.761
      15.500  0.2456372E+15       0.668
      16.500  0.2172172E+15       0.591
      17.500  0.1989968E+15       0.542
      18.500  0.1790147E+15       0.487
      19.500  0.1669468E+15       0.454
      21.500  0.1467897E+15       0.399
      23.500  0.1286156E+15       0.350
      25.500  0.1158103E+15       0.315
      27.500  0.9963599E+14       0.271
      29.500  0.8929108E+14       0.243
      31.500  0.8256351E+14       0.225
      33.500  0.7387824E+14       0.201
      35.500  0.6769395E+14       0.184
      37.500  0.6332462E+14       0.172
      39.500  0.5982620E+14       0.163
      41.500  0.5746576E+14       0.156
      43.500  0.5865787E+14       0.160
      45.500  0.5753209E+14       0.157
      47.500  0.5377811E+14       0.146
      49.500  0.5112638E+14       0.139
      51.500  0.4819046E+14       0.131
      53.500  0.4655330E+14       0.127
      55.500  0.4506364E+14       0.123
      57.500  0.4209589E+14       0.115
      59.500  0.4127871E+14       0.112
      61.500  0.4109299E+14       0.112
      63.500  0.4005673E+14       0.109
      65.500  0.3792370E+14       0.103
      67.500  0.3575860E+14       0.097
      69.500  0.3406455E+14       0.093
      71.500  0.3259115E+14       0.089
      73.500  0.3124462E+14       0.085
      75.500  0.3048119E+14       0.083
      77.500  0.2880232E+14       0.078
      79.500  0.2764950E+14       0.075
      81.500  0.2628006E+14       0.072
      83.500  0.2506165E+14       0.068
      85.500  0.2383862E+14       0.065
      87.500  0.2309061E+14       0.063
      89.500  0.2198565E+14       0.060
      91.500  0.1987013E+14       0.054
      93.500  0.1868517E+14       0.051
      95.500  0.1788199E+14       0.049
      97.500  0.1707254E+14       0.046
      99.500  0.1630450E+14       0.044
