 % time (yr) / global POP flux (mol yr-1) / global POP density (mol m-2 yr-1)
       0.500  0.1097360E+13  0.2986196E-02
       1.500  0.1110937E+13  0.3023143E-02
       2.500  0.1060747E+13  0.2886563E-02
       3.500  0.1030907E+13  0.2805362E-02
       4.500  0.1018419E+13  0.2771377E-02
       5.500  0.1006508E+13  0.2738966E-02
       6.500  0.9941145E+12  0.2705240E-02
       7.500  0.9868739E+12  0.2685536E-02
       8.500  0.9797253E+12  0.2666083E-02
       9.500  0.9733544E+12  0.2648747E-02
      10.500  0.9665393E+12  0.2630201E-02
      11.500  0.9591607E+12  0.2610122E-02
      12.500  0.9525277E+12  0.2592072E-02
      13.500  0.9462545E+12  0.2575001E-02
      14.500  0.9412542E+12  0.2561394E-02
      15.500  0.9372780E+12  0.2550573E-02
      16.500  0.9328323E+12  0.2538475E-02
      17.500  0.9272134E+12  0.2523185E-02
      18.500  0.9209156E+12  0.2506047E-02
      19.500  0.9156219E+12  0.2491642E-02
      21.500  0.9121439E+12  0.2482177E-02
      23.500  0.9027188E+12  0.2456529E-02
      25.500  0.8941035E+12  0.2433085E-02
      27.500  0.8881876E+12  0.2416986E-02
      29.500  0.8816010E+12  0.2399062E-02
      31.500  0.8754529E+12  0.2382332E-02
      33.500  0.8691070E+12  0.2365063E-02
      35.500  0.8635705E+12  0.2349996E-02
      37.500  0.8577292E+12  0.2334101E-02
      39.500  0.8515992E+12  0.2317420E-02
      41.500  0.8458349E+12  0.2301733E-02
      43.500  0.8414765E+12  0.2289873E-02
      45.500  0.8386058E+12  0.2282061E-02
      47.500  0.8357011E+12  0.2274156E-02
      49.500  0.8324933E+12  0.2265427E-02
      51.500  0.8285687E+12  0.2254747E-02
      53.500  0.8251617E+12  0.2245476E-02
      55.500  0.8239810E+12  0.2242263E-02
      57.500  0.8269764E+12  0.2250414E-02
      59.500  0.8289500E+12  0.2255785E-02
      61.500  0.8338996E+12  0.2269254E-02
      63.500  0.8329115E+12  0.2266565E-02
      65.500  0.8308811E+12  0.2261040E-02
      67.500  0.8299855E+12  0.2258603E-02
      69.500  0.8276870E+12  0.2252348E-02
      71.500  0.8258944E+12  0.2247470E-02
      73.500  0.8235812E+12  0.2241175E-02
      75.500  0.8253620E+12  0.2246021E-02
      77.500  0.8236319E+12  0.2241313E-02
      79.500  0.8215161E+12  0.2235556E-02
      81.500  0.8194853E+12  0.2230029E-02
      83.500  0.8176135E+12  0.2224936E-02
      85.500  0.8157607E+12  0.2219894E-02
      87.500  0.8141219E+12  0.2215434E-02
      89.500  0.8126296E+12  0.2211373E-02
      91.500  0.8113092E+12  0.2207780E-02
      93.500  0.8098264E+12  0.2203745E-02
      95.500  0.8084264E+12  0.2199935E-02
      97.500  0.8070600E+12  0.2196217E-02
      99.500  0.8057459E+12  0.2192641E-02
