 % time (yr) / mean (land) surface air temperature (degrees C)
       0.500   -4.877667
       1.500   -4.184837
       2.500   -3.268152
       3.500   -2.539115
       4.500   -1.826495
       5.500   -1.153631
       6.500   -0.545560
       7.500   -0.001999
       8.500    0.474433
       9.500    0.903444
      10.500    1.284234
      11.500    1.616127
      12.500    1.914200
      13.500    2.181061
      14.500    2.417331
      15.500    2.615942
      16.500    2.800644
      17.500    2.973280
      18.500    3.120964
      19.500    3.266965
      21.500    3.542068
      23.500    3.784032
      25.500    4.010948
      27.500    4.252806
      29.500    4.463134
      31.500    4.656687
      33.500    4.834663
      35.500    5.003617
      37.500    5.156462
      39.500    5.294230
      41.500    5.421987
      43.500    5.547874
      45.500    5.666347
      47.500    5.773363
      49.500    5.877361
      51.500    5.971765
      53.500    6.064371
      55.500    6.157333
      57.500    6.246235
      59.500    6.341046
      61.500    6.427331
      63.500    6.501796
      65.500    6.566423
      67.500    6.626195
      69.500    6.680138
      71.500    6.731567
      73.500    6.782110
      75.500    6.838664
      77.500    6.885692
      79.500    6.928586
      81.500    6.968814
      83.500    7.007375
      85.500    7.043104
      87.500    7.078698
      89.500    7.114009
      91.500    7.148903
      93.500    7.180088
      95.500    7.209524
      97.500    7.237405
      99.500    7.263892
