 % time (yr) / mean (land) surface air temperature (degrees C)
       0.500    6.228565
       1.500    8.807186
       2.500   10.431566
       3.500   11.527605
       4.500   12.319020
       5.500   12.926518
       6.500   13.419209
       7.500   13.829687
       8.500   14.180727
       9.500   14.484723
      10.500   14.752923
      11.500   14.994269
      12.500   15.213719
      13.500   15.417991
      14.500   15.606425
      15.500   15.780098
      16.500   15.939306
      17.500   16.086716
      18.500   16.224398
      19.500   16.352117
      21.500   16.580649
      23.500   16.780435
      25.500   16.952967
      27.500   17.103462
      29.500   17.233424
      31.500   17.354391
      33.500   17.473352
      35.500   17.583881
      37.500   17.688279
      39.500   17.781973
      41.500   17.868136
      43.500   17.950404
      45.500   18.028814
      47.500   18.103405
      49.500   18.174236
      51.500   18.242144
      53.500   18.306947
      55.500   18.367967
      57.500   18.425665
      59.500   18.480600
      61.500   18.532502
      63.500   18.581221
      65.500   18.627336
      67.500   18.670772
      69.500   18.711016
      71.500   18.746309
      73.500   18.779577
      75.500   18.810740
      77.500   18.839613
      79.500   18.866260
      81.500   18.892477
      83.500   18.917576
      85.500   18.940843
      87.500   18.963675
      89.500   18.985067
      91.500   19.005522
      93.500   19.025197
      95.500   19.043665
      97.500   19.062203
      99.500   19.079841
