 % time (yr) / global sea-ice area (m2) / mean sea-ice cover (%) / global sea-ice volume (m3) / mean sea-ice thickness (m)
       0.500  0.1180E+13    0.321  0.1553E+12    0.089
       1.500  0.7606E+13    2.070  0.1882E+13    0.230
       2.500  0.1360E+14    3.700  0.6030E+13    0.410
       3.500  0.1680E+14    4.570  0.1087E+14    0.608
       4.500  0.2193E+14    5.967  0.1584E+14    0.703
       5.500  0.2629E+14    7.154  0.2043E+14    0.777
       6.500  0.2937E+14    7.993  0.2456E+14    0.839
       7.500  0.3202E+14    8.712  0.2806E+14    0.882
       8.500  0.3337E+14    9.081  0.3083E+14    0.929
       9.500  0.3515E+14    9.565  0.3367E+14    0.957
      10.500  0.3674E+14    9.997  0.3650E+14    0.989
      11.500  0.3772E+14   10.266  0.3941E+14    1.039
      12.500  0.3827E+14   10.415  0.4197E+14    1.091
      13.500  0.3850E+14   10.478  0.4431E+14    1.146
      14.500  0.3877E+14   10.551  0.4665E+14    1.199
      15.500  0.3880E+14   10.557  0.4865E+14    1.252
      16.500  0.3899E+14   10.611  0.5045E+14    1.291
      17.500  0.3935E+14   10.709  0.5200E+14    1.319
      18.500  0.3935E+14   10.709  0.5325E+14    1.351
      19.500  0.3938E+14   10.716  0.5411E+14    1.372
      21.500  0.3906E+14   10.630  0.5492E+14    1.405
      23.500  0.3839E+14   10.448  0.5461E+14    1.423
      25.500  0.3766E+14   10.247  0.5378E+14    1.431
      27.500  0.3703E+14   10.076  0.5259E+14    1.426
      29.500  0.3630E+14    9.879  0.5136E+14    1.422
      31.500  0.3587E+14    9.760  0.5016E+14    1.407
      33.500  0.3552E+14    9.666  0.4900E+14    1.389
      35.500  0.3494E+14    9.507  0.4782E+14    1.379
      37.500  0.3436E+14    9.350  0.4662E+14    1.369
      39.500  0.3402E+14    9.258  0.4555E+14    1.351
      41.500  0.3371E+14    9.172  0.4459E+14    1.335
      43.500  0.3342E+14    9.094  0.4377E+14    1.323
      45.500  0.3310E+14    9.007  0.4298E+14    1.312
      47.500  0.3290E+14    8.953  0.4225E+14    1.297
      49.500  0.3270E+14    8.899  0.4160E+14    1.285
      51.500  0.3240E+14    8.816  0.4096E+14    1.277
      53.500  0.3224E+14    8.773  0.4043E+14    1.266
      55.500  0.3206E+14    8.725  0.3996E+14    1.258
      57.500  0.3190E+14    8.682  0.3954E+14    1.251
      59.500  0.3168E+14    8.620  0.3916E+14    1.248
      61.500  0.3142E+14    8.551  0.3883E+14    1.246
      63.500  0.3139E+14    8.542  0.3862E+14    1.240
      65.500  0.3126E+14    8.507  0.3837E+14    1.236
      67.500  0.3099E+14    8.434  0.3804E+14    1.235
      69.500  0.3087E+14    8.400  0.3783E+14    1.233
      71.500  0.3080E+14    8.380  0.3761E+14    1.229
      73.500  0.3077E+14    8.373  0.3740E+14    1.223
      75.500  0.3059E+14    8.324  0.3715E+14    1.222
      77.500  0.3031E+14    8.248  0.3688E+14    1.223
      79.500  0.3041E+14    8.276  0.3674E+14    1.214
      81.500  0.3001E+14    8.166  0.3642E+14    1.218
      83.500  0.2962E+14    8.060  0.3618E+14    1.225
      85.500  0.2995E+14    8.150  0.3608E+14    1.209
      87.500  0.2943E+14    8.008  0.3583E+14    1.221
      89.500  0.2959E+14    8.053  0.3570E+14    1.210
      91.500  0.2945E+14    8.013  0.3550E+14    1.209
      93.500  0.2953E+14    8.037  0.3538E+14    1.200
      95.500  0.2919E+14    7.945  0.3513E+14    1.205
      97.500  0.2914E+14    7.930  0.3497E+14    1.202
      99.500  0.2910E+14    7.918  0.3482E+14    1.198
