 % time (yr) / global pCO2_13C flux (mol yr-1) / global pCO2_13C (o/oo) NOTE: is the instantaneous atmospheric forcing flux.
       0.500 -0.1391523E+14     -23.129
       1.500 -0.7003592E+13     -31.213
       2.500 -0.4415777E+13     -36.041
       3.500 -0.3138992E+13     -40.434
       4.500 -0.2246867E+13     -45.474
       5.500 -0.1692921E+13     -50.257
       6.500 -0.1293470E+13     -55.688
       7.500 -0.9845268E+12     -62.587
       8.500 -0.7947303E+12     -68.474
       9.500 -0.6270713E+12     -76.218
      10.500 -0.4900168E+12     -86.134
      11.500 -0.3324380E+12    -109.388
      12.500 -0.2026668E+12    -152.683
      13.500 -0.7998505E+11    -290.032
      14.500  0.4669257E+11    1608.784
      15.500  0.1640197E+12     183.091
      16.500  0.2703873E+12      88.639
      17.500  0.3547485E+12      56.735
      18.500  0.4134804E+12      42.165
      19.500  0.4644590E+12      32.460
      21.500  0.5294080E+12      21.925
      23.500  0.5528764E+12      16.872
      25.500  0.5534899E+12      13.724
      27.500  0.5378288E+12      11.759
      29.500  0.5085655E+12      10.893
      31.500  0.4876146E+12       9.686
      33.500  0.4792091E+12       7.877
      35.500  0.4514595E+12       7.441
      37.500  0.4302385E+12       6.818
      39.500  0.4105069E+12       6.064
      41.500  0.3934390E+12       5.375
      43.500  0.3775388E+12       4.835
      45.500  0.3588430E+12       4.624
      47.500  0.3409870E+12       4.390
      49.500  0.3197102E+12       4.410
      51.500  0.3024842E+12       4.699
      53.500  0.2828995E+12       4.958
      55.500  0.2670806E+12       5.090
      57.500  0.2455118E+12       5.946
      59.500  0.2267866E+12       7.098
      61.500  0.2076337E+12       8.830
      63.500  0.1982694E+12       9.165
      65.500  0.1828363E+12      10.659
      67.500  0.1691798E+12      12.877
      69.500  0.1608379E+12      13.914
      71.500  0.1597797E+12      13.446
      73.500  0.1579136E+12      12.997
      75.500  0.1486562E+12      14.845
      77.500  0.1312154E+12      19.347
      79.500  0.1352337E+12      16.877
      81.500  0.1130272E+12      24.585
      83.500  0.9339755E+11      36.036
      85.500  0.1151678E+12      23.216
      87.500  0.8601100E+11      40.887
      89.500  0.9851481E+11      31.967
      91.500  0.9033731E+11      36.851
      93.500  0.9625651E+11      32.159
      95.500  0.8085890E+11      43.987
      97.500  0.8085668E+11      44.663
      99.500  0.8224883E+11      44.055
