 % time (yr) / temperature (C) / _surT (C) / _benT (degrees C)
       0.500    0.047550    2.859162   -0.022454
       1.500    0.111796    6.229793   -0.059628
       2.500    0.165447    8.200484   -0.088285
       3.500    0.212782    9.450914   -0.112734
       4.500    0.255879   10.430428   -0.134186
       5.500    0.295798   11.206581   -0.152935
       6.500    0.333053   11.824606   -0.169612
       7.500    0.368133   12.354061   -0.184565
       8.500    0.401341   12.780421   -0.198153
       9.500    0.432825   13.183458   -0.210663
      10.500    0.462682   13.542994   -0.222171
      11.500    0.491171   13.846747   -0.232624
      12.500    0.518574   14.109705   -0.242287
      13.500    0.544994   14.338429   -0.250985
      14.500    0.570486   14.551395   -0.259027
      15.500    0.595164   14.739026   -0.266835
      16.500    0.619077   14.919864   -0.274070
      17.500    0.642239   15.097990   -0.280673
      18.500    0.664669   15.247891   -0.286905
      19.500    0.686434   15.392384   -0.292666
      21.500    0.728061   15.640790   -0.303715
      23.500    0.767446   15.851077   -0.314314
      25.500    0.804778   16.039865   -0.324459
      27.500    0.840249   16.216051   -0.334326
      29.500    0.873983   16.367248   -0.344103
      31.500    0.906127   16.514675   -0.354432
      33.500    0.936811   16.656176   -0.365274
      35.500    0.966142   16.773323   -0.376179
      37.500    0.994217   16.882244   -0.386641
      39.500    1.021104   16.992853   -0.397035
      41.500    1.046896   17.093940   -0.407432
      43.500    1.071670   17.187164   -0.417354
      45.500    1.095490   17.270193   -0.426966
      47.500    1.118420   17.353166   -0.436421
      49.500    1.140528   17.430353   -0.445680
      51.500    1.161869   17.494344   -0.454646
      53.500    1.182506   17.561881   -0.463652
      55.500    1.202482   17.624723   -0.472519
      57.500    1.221835   17.684265   -0.481705
      59.500    1.240591   17.736375   -0.490614
      61.500    1.258800   17.782130   -0.499318
      63.500    1.276511   17.835782   -0.507827
      65.500    1.293733   17.882257   -0.516056
      67.500    1.310490   17.920178   -0.524450
      69.500    1.326777   17.963403   -0.532586
      71.500    1.342628   18.006976   -0.540577
      73.500    1.358063   18.052328   -0.548551
      75.500    1.373097   18.086534   -0.556587
      77.500    1.387737   18.114481   -0.564356
      79.500    1.401995   18.162432   -0.571895
      81.500    1.415891   18.180132   -0.578955
      83.500    1.429431   18.197768   -0.585852
      85.500    1.442638   18.254576   -0.592691
      87.500    1.455532   18.260011   -0.599386
      89.500    1.468112   18.303353   -0.605825
      91.500    1.480419   18.328070   -0.611988
      93.500    1.492451   18.364254   -0.618086
      95.500    1.504199   18.375616   -0.623863
      97.500    1.515678   18.403040   -0.629451
      99.500    1.526899   18.428855   -0.634816
