 % time (yr) / mean (land) surface air temperature (degrees C)
       0.500   -4.626461
       1.500   -2.662585
       2.500   -1.248630
       3.500   -0.403698
       4.500    0.149495
       5.500    0.518150
       6.500    0.823437
       7.500    1.089356
       8.500    1.336472
       9.500    1.549647
      10.500    1.731081
      11.500    1.902681
      12.500    2.076284
      13.500    2.240555
      14.500    2.398505
      15.500    2.552984
      16.500    2.696489
      17.500    2.832936
      18.500    2.964079
      19.500    3.092722
      21.500    3.335084
      23.500    3.565867
      25.500    3.783197
      27.500    3.985533
      29.500    4.168553
      31.500    4.332050
      33.500    4.484803
      35.500    4.628304
      37.500    4.765244
      39.500    4.890203
      41.500    5.003723
      43.500    5.106565
      45.500    5.202786
      47.500    5.292493
      49.500    5.375176
      51.500    5.451433
      53.500    5.523227
      55.500    5.591183
      57.500    5.653653
      59.500    5.714830
      61.500    5.769365
      63.500    5.817065
      65.500    5.865083
      67.500    5.915130
      69.500    5.962366
      71.500    6.006536
      73.500    6.049713
      75.500    6.093644
      77.500    6.135569
      79.500    6.175316
      81.500    6.216039
      83.500    6.253938
      85.500    6.290653
      87.500    6.326532
      89.500    6.358137
      91.500    6.387479
      93.500    6.418270
      95.500    6.448250
      97.500    6.476216
      99.500    6.506275
