 % time (yr) / temperature (C) / _surT (C) / _benT (degrees C)
       0.500    0.047681    2.862348   -0.022411
       1.500    0.111927    6.231916   -0.059563
       2.500    0.165549    8.200721   -0.088211
       3.500    0.212885    9.452829   -0.112654
       4.500    0.255979   10.431090   -0.134112
       5.500    0.295905   11.206650   -0.152864
       6.500    0.333167   11.826418   -0.169537
       7.500    0.368247   12.357852   -0.184484
       8.500    0.401456   12.779971   -0.198085
       9.500    0.432948   13.184402   -0.210612
      10.500    0.462796   13.543278   -0.222143
      11.500    0.491281   13.850887   -0.232620
      12.500    0.518678   14.112349   -0.242249
      13.500    0.545112   14.340030   -0.250947
      14.500    0.570608   14.554177   -0.258988
      15.500    0.595300   14.740646   -0.266779
      16.500    0.619229   14.921360   -0.274025
      17.500    0.642412   15.099275   -0.280625
      18.500    0.664856   15.249509   -0.286844
      19.500    0.686640   15.394211   -0.292562
      21.500    0.728300   15.642567   -0.303537
      23.500    0.767711   15.853102   -0.314080
      25.500    0.805073   16.040849   -0.324236
      27.500    0.840568   16.218101   -0.334160
      29.500    0.874319   16.369819   -0.343964
      31.500    0.906478   16.518756   -0.354223
      33.500    0.937176   16.658875   -0.365031
      35.500    0.966518   16.775929   -0.375906
      37.500    0.994604   16.886028   -0.386306
      39.500    1.021498   16.993856   -0.396616
      41.500    1.047310   17.097369   -0.406891
      43.500    1.072094   17.191290   -0.416889
      45.500    1.095924   17.272853   -0.426594
      47.500    1.118877   17.355176   -0.435983
      49.500    1.141013   17.433034   -0.445133
      51.500    1.162379   17.496869   -0.454147
      53.500    1.183033   17.564239   -0.463236
      55.500    1.203030   17.627424   -0.472154
      57.500    1.222404   17.686901   -0.481250
      59.500    1.241186   17.737250   -0.490056
      61.500    1.259411   17.783602   -0.498623
      63.500    1.277124   17.839593   -0.506946
      65.500    1.294352   17.887230   -0.515190
      67.500    1.311109   17.924844   -0.523515
      69.500    1.327408   17.967514   -0.531764
      71.500    1.343282   18.017668   -0.539796
      73.500    1.358736   18.051903   -0.547875
      75.500    1.373783   18.070749   -0.555920
      77.500    1.388443   18.125367   -0.563531
      79.500    1.402731   18.160719   -0.570921
      81.500    1.416648   18.175411   -0.577911
      83.500    1.430207   18.206849   -0.584870
      85.500    1.443434   18.241000   -0.591861
      87.500    1.456314   18.271804   -0.598652
      89.500    1.468895   18.295965   -0.605106
      91.500    1.481207   18.326903   -0.611484
      93.500    1.493237   18.368002   -0.617401
      95.500    1.504996   18.402033   -0.623067
      97.500    1.516485   18.397986   -0.628826
      99.500    1.527716   18.413423   -0.634263
