 % time (yr) / global POFe flux (mol yr-1) / global POFe density (mol m-2 yr-1)
       0.500  0.1360697E+11  0.3702805E-04
       1.500  0.9461588E+10  0.2574740E-04
       2.500  0.7790142E+10  0.2119897E-04
       3.500  0.7013820E+10  0.1908640E-04
       4.500  0.6504522E+10  0.1770047E-04
       5.500  0.6088525E+10  0.1656843E-04
       6.500  0.5717293E+10  0.1555822E-04
       7.500  0.5419159E+10  0.1474692E-04
       8.500  0.5188130E+10  0.1411823E-04
       9.500  0.4939467E+10  0.1344155E-04
      10.500  0.4715616E+10  0.1283240E-04
      11.500  0.4526744E+10  0.1231843E-04
      12.500  0.4370798E+10  0.1189406E-04
      13.500  0.4222578E+10  0.1149072E-04
      14.500  0.4079481E+10  0.1110131E-04
      15.500  0.3949076E+10  0.1074645E-04
      16.500  0.3829180E+10  0.1042018E-04
      17.500  0.3715962E+10  0.1011208E-04
      18.500  0.3625767E+10  0.9866640E-05
      19.500  0.3535174E+10  0.9620114E-05
      21.500  0.3394908E+10  0.9238414E-05
      23.500  0.3287562E+10  0.8946299E-05
      25.500  0.3208615E+10  0.8731463E-05
      27.500  0.3152256E+10  0.8578097E-05
      29.500  0.3114405E+10  0.8475092E-05
      31.500  0.3082274E+10  0.8387658E-05
      33.500  0.3050217E+10  0.8300422E-05
      35.500  0.3035872E+10  0.8261385E-05
      37.500  0.3018039E+10  0.8212857E-05
      39.500  0.3006095E+10  0.8180353E-05
      41.500  0.2987423E+10  0.8129543E-05
      43.500  0.2973739E+10  0.8092306E-05
      45.500  0.2963563E+10  0.8064615E-05
      47.500  0.2950245E+10  0.8028373E-05
      49.500  0.2938205E+10  0.7995609E-05
      51.500  0.2929676E+10  0.7972399E-05
      53.500  0.2920317E+10  0.7946930E-05
      55.500  0.2912162E+10  0.7924738E-05
      57.500  0.2907828E+10  0.7912945E-05
      59.500  0.2903466E+10  0.7901074E-05
      61.500  0.2901314E+10  0.7895218E-05
      63.500  0.2894278E+10  0.7876070E-05
      65.500  0.2890972E+10  0.7867074E-05
      67.500  0.2890250E+10  0.7865109E-05
      69.500  0.2886798E+10  0.7855716E-05
      71.500  0.2878783E+10  0.7833906E-05
      73.500  0.2878465E+10  0.7833040E-05
      75.500  0.2887067E+10  0.7856448E-05
      77.500  0.2873978E+10  0.7820829E-05
      79.500  0.2874723E+10  0.7822858E-05
      81.500  0.2883033E+10  0.7845471E-05
      83.500  0.2882416E+10  0.7843791E-05
      85.500  0.2883301E+10  0.7846200E-05
      87.500  0.2883407E+10  0.7846490E-05
      89.500  0.2885403E+10  0.7851921E-05
      91.500  0.2883622E+10  0.7847072E-05
      93.500  0.2879968E+10  0.7837131E-05
      95.500  0.2877041E+10  0.7829164E-05
      97.500  0.2888487E+10  0.7860314E-05
      99.500  0.2889737E+10  0.7863714E-05
