 % time (yr) / global PON flux (mol yr-1) / global PON density (mol m-2 yr-1)
       0.500  0.4573524E+15  0.1244573E+01
       1.500  0.3621219E+15  0.9854263E+00
       2.500  0.2883207E+15  0.7845945E+00
       3.500  0.2581858E+15  0.7025897E+00
       4.500  0.2381284E+15  0.6480083E+00
       5.500  0.2224989E+15  0.6054765E+00
       6.500  0.2091841E+15  0.5692435E+00
       7.500  0.1983687E+15  0.5398121E+00
       8.500  0.1894093E+15  0.5154311E+00
       9.500  0.1803322E+15  0.4907301E+00
      10.500  0.1719855E+15  0.4680165E+00
      11.500  0.1649705E+15  0.4489271E+00
      12.500  0.1590222E+15  0.4327400E+00
      13.500  0.1534125E+15  0.4174746E+00
      14.500  0.1479494E+15  0.4026082E+00
      15.500  0.1430380E+15  0.3892431E+00
      16.500  0.1384489E+15  0.3767550E+00
      17.500  0.1341266E+15  0.3649929E+00
      18.500  0.1304285E+15  0.3549292E+00
      19.500  0.1268969E+15  0.3453189E+00
      21.500  0.1211490E+15  0.3296776E+00
      23.500  0.1166133E+15  0.3173345E+00
      25.500  0.1131064E+15  0.3077915E+00
      27.500  0.1104056E+15  0.3004418E+00
      29.500  0.1083902E+15  0.2949574E+00
      31.500  0.1066617E+15  0.2902539E+00
      33.500  0.1050139E+15  0.2857697E+00
      35.500  0.1039185E+15  0.2827887E+00
      37.500  0.1028276E+15  0.2798201E+00
      39.500  0.1019396E+15  0.2774039E+00
      41.500  0.1009072E+15  0.2745943E+00
      43.500  0.9996526E+14  0.2720311E+00
      45.500  0.9913926E+14  0.2697833E+00
      47.500  0.9828746E+14  0.2674653E+00
      49.500  0.9747523E+14  0.2652550E+00
      51.500  0.9678984E+14  0.2633899E+00
      53.500  0.9607269E+14  0.2614384E+00
      55.500  0.9543745E+14  0.2597097E+00
      57.500  0.9491988E+14  0.2583013E+00
      59.500  0.9443181E+14  0.2569731E+00
      61.500  0.9399336E+14  0.2557800E+00
      63.500  0.9341924E+14  0.2542177E+00
      65.500  0.9298004E+14  0.2530225E+00
      67.500  0.9263570E+14  0.2520854E+00
      69.500  0.9221908E+14  0.2509517E+00
      71.500  0.9169351E+14  0.2495215E+00
      73.500  0.9137618E+14  0.2486580E+00
      75.500  0.9132687E+14  0.2485238E+00
      77.500  0.9069026E+14  0.2467914E+00
      79.500  0.9045372E+14  0.2461477E+00
      81.500  0.9042187E+14  0.2460611E+00
      83.500  0.9017982E+14  0.2454024E+00
      85.500  0.8997108E+14  0.2448344E+00
      87.500  0.8973222E+14  0.2441843E+00
      89.500  0.8959334E+14  0.2438064E+00
      91.500  0.8934021E+14  0.2431176E+00
      93.500  0.8902165E+14  0.2422507E+00
      95.500  0.8872955E+14  0.2414558E+00
      97.500  0.8889720E+14  0.2419120E+00
      99.500  0.8878784E+14  0.2416144E+00
