 % time (yr) / surface air temperature (degrees C)
       0.500   -2.743007
       1.500   -0.124493
       2.500    1.570523
       3.500    2.614663
       4.500    3.318794
       5.500    3.804142
       6.500    4.197917
       7.500    4.528673
       8.500    4.818579
       9.500    5.066506
      10.500    5.275978
      11.500    5.473285
      12.500    5.664806
      13.500    5.846257
      14.500    6.018513
      15.500    6.186854
      16.500    6.341865
      17.500    6.488750
      18.500    6.630925
      19.500    6.770803
      21.500    7.038704
      23.500    7.297791
      25.500    7.542512
      27.500    7.770823
      29.500    7.977381
      31.500    8.164846
      33.500    8.340607
      35.500    8.504868
      37.500    8.661271
      39.500    8.804896
      41.500    8.936405
      43.500    9.055863
      45.500    9.168016
      47.500    9.273983
      49.500    9.372552
      51.500    9.464124
      53.500    9.551595
      55.500    9.634734
      57.500    9.710592
      59.500    9.784736
      61.500    9.851474
      63.500    9.915121
      65.500    9.976284
      67.500   10.035668
      69.500   10.092853
      71.500   10.146697
      73.500   10.198763
      75.500   10.249942
      77.500   10.303256
      79.500   10.351881
      81.500   10.399839
      83.500   10.445689
      85.500   10.490534
      87.500   10.533562
      89.500   10.570684
      91.500   10.605753
      93.500   10.643889
      95.500   10.680180
      97.500   10.711315
      99.500   10.746639
