 % time (yr) / global POC_13C flux (mol yr-1) / global POC_13C delta (o/oo)
       0.500  0.2639701E+14       -28.922
       1.500  0.2210348E+14       -25.870
       2.500  0.1832301E+14       -25.587
       3.500  0.1655318E+14       -25.525
       4.500  0.1537617E+14       -25.424
       5.500  0.1444167E+14       -25.312
       6.500  0.1363387E+14       -25.196
       7.500  0.1297698E+14       -25.108
       8.500  0.1243556E+14       -25.061
       9.500  0.1187490E+14       -24.994
      10.500  0.1135785E+14       -24.935
      11.500  0.1091906E+14       -24.886
      12.500  0.1054901E+14       -24.862
      13.500  0.1019503E+14       -24.828
      14.500  0.9856770E+13       -24.801
      15.500  0.9545504E+13       -24.767
      16.500  0.9256834E+13       -24.740
      17.500  0.8980078E+13       -24.712
      18.500  0.8745685E+13       -24.701
      19.500  0.8516864E+13       -24.682
      21.500  0.8143766E+13       -24.668
      23.500  0.7849583E+13       -24.663
      25.500  0.7621172E+13       -24.665
      27.500  0.7445966E+13       -24.670
      29.500  0.7317256E+13       -24.681
      31.500  0.7205659E+13       -24.685
      33.500  0.7099227E+13       -24.681
      35.500  0.7029613E+13       -24.693
      37.500  0.6960085E+13       -24.692
      39.500  0.6904641E+13       -24.699
      41.500  0.6838880E+13       -24.690
      43.500  0.6779634E+13       -24.691
      45.500  0.6727719E+13       -24.695
      47.500  0.6672961E+13       -24.695
      49.500  0.6621029E+13       -24.696
      51.500  0.6577674E+13       -24.701
      53.500  0.6531916E+13       -24.703
      55.500  0.6491338E+13       -24.705
      57.500  0.6458828E+13       -24.712
      59.500  0.6428161E+13       -24.718
      61.500  0.6401760E+13       -24.728
      63.500  0.6364400E+13       -24.727
      65.500  0.6336526E+13       -24.731
      67.500  0.6315423E+13       -24.739
      69.500  0.6289239E+13       -24.742
      71.500  0.6255029E+13       -24.736
      73.500  0.6235687E+13       -24.744
      75.500  0.6235379E+13       -24.765
      77.500  0.6192752E+13       -24.748
      79.500  0.6178580E+13       -24.753
      81.500  0.6178537E+13       -24.772
      83.500  0.6163702E+13       -24.772
      85.500  0.6151157E+13       -24.776
      87.500  0.6136775E+13       -24.777
      89.500  0.6128737E+13       -24.783
      91.500  0.6112758E+13       -24.781
      93.500  0.6092197E+13       -24.779
      95.500  0.6073741E+13       -24.775
      97.500  0.6087422E+13       -24.795
      99.500  0.6081429E+13       -24.797
