 % time (yr) / global POP flux (mol yr-1) / global POP density (mol m-2 yr-1)
       0.500  0.2314185E+14  0.6297490E-01
       1.500  0.1931772E+14  0.5256846E-01
       2.500  0.1600911E+14  0.4356487E-01
       3.500  0.1446187E+14  0.3935445E-01
       4.500  0.1343218E+14  0.3655241E-01
       5.500  0.1261439E+14  0.3432698E-01
       6.500  0.1190740E+14  0.3240309E-01
       7.500  0.1133269E+14  0.3083915E-01
       8.500  0.1085935E+14  0.2955107E-01
       9.500  0.1036905E+14  0.2821683E-01
      10.500  0.9916977E+13  0.2698663E-01
      11.500  0.9533381E+13  0.2594277E-01
      12.500  0.9210060E+13  0.2506293E-01
      13.500  0.8900705E+13  0.2422110E-01
      14.500  0.8605152E+13  0.2341682E-01
      15.500  0.8333126E+13  0.2267657E-01
      16.500  0.8080893E+13  0.2199018E-01
      17.500  0.7839074E+13  0.2133213E-01
      18.500  0.7634380E+13  0.2077510E-01
      19.500  0.7434491E+13  0.2023115E-01
      21.500  0.7108705E+13  0.1934461E-01
      23.500  0.6851877E+13  0.1864571E-01
      25.500  0.6652513E+13  0.1810319E-01
      27.500  0.6499607E+13  0.1768709E-01
      29.500  0.6387327E+13  0.1738155E-01
      31.500  0.6289943E+13  0.1711654E-01
      33.500  0.6197007E+13  0.1686364E-01
      35.500  0.6136314E+13  0.1669848E-01
      37.500  0.6075620E+13  0.1653332E-01
      39.500  0.6027261E+13  0.1640172E-01
      41.500  0.5969802E+13  0.1624536E-01
      43.500  0.5918090E+13  0.1610464E-01
      45.500  0.5872799E+13  0.1598139E-01
      47.500  0.5825001E+13  0.1585132E-01
      49.500  0.5779669E+13  0.1572796E-01
      51.500  0.5741852E+13  0.1562505E-01
      53.500  0.5701923E+13  0.1551639E-01
      55.500  0.5666510E+13  0.1542002E-01
      57.500  0.5638176E+13  0.1534292E-01
      59.500  0.5611436E+13  0.1527015E-01
      61.500  0.5588446E+13  0.1520759E-01
      63.500  0.5555825E+13  0.1511882E-01
      65.500  0.5531519E+13  0.1505268E-01
      67.500  0.5513139E+13  0.1500266E-01
      69.500  0.5490297E+13  0.1494050E-01
      71.500  0.5460402E+13  0.1485915E-01
      73.500  0.5443559E+13  0.1481332E-01
      75.500  0.5443411E+13  0.1481291E-01
      77.500  0.5406102E+13  0.1471139E-01
      79.500  0.5393760E+13  0.1467780E-01
      81.500  0.5393824E+13  0.1467798E-01
      83.500  0.5380872E+13  0.1464273E-01
      85.500  0.5369942E+13  0.1461299E-01
      87.500  0.5357393E+13  0.1457884E-01
      89.500  0.5350409E+13  0.1455983E-01
      91.500  0.5336447E+13  0.1452184E-01
      93.500  0.5318490E+13  0.1447297E-01
      95.500  0.5302356E+13  0.1442907E-01
      97.500  0.5314404E+13  0.1446185E-01
      99.500  0.5309186E+13  0.1444766E-01
