 % time (yr) / global pCO2_13C flux (mol yr-1) / global pCO2_13C (o/oo) NOTE: is the instantaneous atmospheric forcing flux.
       0.500 -0.2737804E+15     -16.580
       1.500 -0.1985767E+15     -18.150
       2.500 -0.1585583E+15     -18.563
       3.500 -0.1320536E+15     -19.052
       4.500 -0.1102216E+15     -19.728
       5.500 -0.9425568E+14     -20.277
       6.500 -0.8432175E+14     -20.532
       7.500 -0.7630596E+14     -20.802
       8.500 -0.6962396E+14     -21.090
       9.500 -0.6384553E+14     -21.425
      10.500 -0.5880007E+14     -21.804
      11.500 -0.5431069E+14     -22.223
      12.500 -0.5019317E+14     -22.699
      13.500 -0.4638837E+14     -23.228
      14.500 -0.4290066E+14     -23.785
      15.500 -0.3986306E+14     -24.331
      16.500 -0.3704068E+14     -24.909
      17.500 -0.3481507E+14     -25.379
      18.500 -0.3292570E+14     -25.799
      19.500 -0.3122893E+14     -26.219
      21.500 -0.2896760E+14     -26.737
      23.500 -0.2730429E+14     -27.157
      25.500 -0.2605979E+14     -27.443
      27.500 -0.2513644E+14     -27.629
      29.500 -0.2432813E+14     -27.800
      31.500 -0.2355897E+14     -27.996
      33.500 -0.2286498E+14     -28.163
      35.500 -0.2223269E+14     -28.331
      37.500 -0.2166025E+14     -28.502
      39.500 -0.2119266E+14     -28.612
      41.500 -0.2063246E+14     -28.790
      43.500 -0.2018373E+14     -28.959
      45.500 -0.1986502E+14     -29.036
      47.500 -0.1949095E+14     -29.164
      49.500 -0.1918370E+14     -29.262
      51.500 -0.1889765E+14     -29.325
      53.500 -0.1864402E+14     -29.379
      55.500 -0.1846773E+14     -29.401
      57.500 -0.1829683E+14     -29.423
      59.500 -0.1817980E+14     -29.410
      61.500 -0.1811152E+14     -29.364
      63.500 -0.1812093E+14     -29.244
      65.500 -0.1804248E+14     -29.190
      67.500 -0.1795045E+14     -29.190
      69.500 -0.1785962E+14     -29.169
      71.500 -0.1779576E+14     -29.171
      73.500 -0.1788661E+14     -29.013
      75.500 -0.1785468E+14     -28.935
      77.500 -0.1779098E+14     -28.895
      79.500 -0.1772046E+14     -28.871
      81.500 -0.1768589E+14     -28.809
      83.500 -0.1766490E+14     -28.743
      85.500 -0.1763575E+14     -28.697
      87.500 -0.1761413E+14     -28.651
      89.500 -0.1760362E+14     -28.597
      91.500 -0.1761260E+14     -28.513
      93.500 -0.1761496E+14     -28.438
      95.500 -0.1761084E+14     -28.381
      97.500 -0.1759621E+14     -28.322
      99.500 -0.1756218E+14     -28.291
