 % time (yr) / global DIC_13C flux (mol yr-1) / global DIC_13C delta (o/oo)
       0.500  0.0000000E+00    -999.999
       1.500 -0.1287837E+12       1.254
       2.500 -0.3054007E+12       1.745
       3.500 -0.4048508E+12       2.063
       4.500 -0.4754817E+12       2.238
       5.500 -0.5285091E+12       2.335
       6.500 -0.5691135E+12       2.392
       7.500 -0.6013733E+12       2.430
       8.500 -0.6277331E+12       2.458
       9.500 -0.6495852E+12       2.480
      10.500 -0.6678334E+12       2.498
      11.500 -0.6831492E+12       2.514
      12.500 -0.6960360E+12       2.528
      13.500 -0.7069026E+12       2.540
      14.500 -0.7162047E+12       2.552
      15.500 -0.7241661E+12       2.562
      16.500 -0.7311556E+12       2.572
      17.500 -0.7372540E+12       2.581
      18.500 -0.7424436E+12       2.588
      19.500 -0.7468609E+12       2.595
      21.500 -0.7537888E+12       2.605
      23.500 -0.7593903E+12       2.613
      25.500 -0.7645294E+12       2.620
      27.500 -0.7691212E+12       2.625
      29.500 -0.7733130E+12       2.630
      31.500 -0.7772853E+12       2.633
      33.500 -0.7809044E+12       2.637
      35.500 -0.7842750E+12       2.641
      37.500 -0.7873763E+12       2.644
      39.500 -0.7853406E+12       2.649
      41.500 -0.7829192E+12       2.653
      43.500 -0.7846800E+12       2.656
      45.500 -0.7860013E+12       2.658
      47.500 -0.7871170E+12       2.661
      49.500 -0.7878579E+12       2.664
      51.500 -0.7882790E+12       2.667
      53.500 -0.7884361E+12       2.669
      55.500 -0.7884864E+12       2.671
      57.500 -0.7884360E+12       2.674
      59.500 -0.7883019E+12       2.676
      61.500 -0.7881329E+12       2.678
      63.500 -0.7880770E+12       2.681
      65.500 -0.7881023E+12       2.683
      67.500 -0.7879639E+12       2.685
      69.500 -0.7876474E+12       2.687
      71.500 -0.7872673E+12       2.689
      73.500 -0.7869623E+12       2.691
      75.500 -0.7867105E+12       2.693
      77.500 -0.7863044E+12       2.694
      79.500 -0.7857679E+12       2.696
      81.500 -0.7851158E+12       2.698
      83.500 -0.7843541E+12       2.700
      85.500 -0.7835093E+12       2.701
      87.500 -0.7825728E+12       2.703
      89.500 -0.7815319E+12       2.705
      91.500 -0.7804222E+12       2.706
      93.500 -0.7792644E+12       2.708
      95.500 -0.7781082E+12       2.710
      97.500 -0.7769510E+12       2.712
      99.500 -0.7757994E+12       2.713
