 % time (yr) / global pO2 sea->air transfer flux (mol yr-1) / global pO2 density (mol m-2 yr-1)
       0.500 -0.1622019E+17     -40.899
       1.500 -0.8354717E+16     -21.066
       2.500 -0.6034178E+16     -15.215
       3.500 -0.4643567E+16     -11.709
       4.500 -0.3491262E+16      -8.803
       5.500 -0.2757177E+16      -6.952
       6.500 -0.2328584E+16      -5.871
       7.500 -0.1982779E+16      -5.000
       8.500 -0.1718419E+16      -4.333
       9.500 -0.1499256E+16      -3.780
      10.500 -0.1318815E+16      -3.325
      11.500 -0.1173854E+16      -2.960
      12.500 -0.1046859E+16      -2.640
      13.500 -0.9315380E+15      -2.349
      14.500 -0.8340152E+15      -2.103
      15.500 -0.7541061E+15      -1.901
      16.500 -0.6783144E+15      -1.710
      17.500 -0.6258668E+15      -1.578
      18.500 -0.5820988E+15      -1.468
      19.500 -0.5467692E+15      -1.379
      21.500 -0.5047006E+15      -1.273
      23.500 -0.4799720E+15      -1.210
      25.500 -0.4685591E+15      -1.181
      27.500 -0.4653351E+15      -1.173
      29.500 -0.4633154E+15      -1.168
      31.500 -0.4626141E+15      -1.166
      33.500 -0.4625996E+15      -1.166
      35.500 -0.4636911E+15      -1.169
      37.500 -0.4648773E+15      -1.172
      39.500 -0.4663463E+15      -1.176
      41.500 -0.4652156E+15      -1.173
      43.500 -0.4668415E+15      -1.177
      45.500 -0.4692412E+15      -1.183
      47.500 -0.4693066E+15      -1.183
      49.500 -0.4710580E+15      -1.188
      51.500 -0.4721782E+15      -1.191
      53.500 -0.4718016E+15      -1.190
      55.500 -0.4747463E+15      -1.197
      57.500 -0.4761966E+15      -1.201
      59.500 -0.4788769E+15      -1.207
      61.500 -0.4826390E+15      -1.217
      63.500 -0.4883295E+15      -1.231
      65.500 -0.4895378E+15      -1.234
      67.500 -0.4913700E+15      -1.239
      69.500 -0.4909473E+15      -1.238
      71.500 -0.4928153E+15      -1.243
      73.500 -0.4980543E+15      -1.256
      75.500 -0.4976231E+15      -1.255
      77.500 -0.4965209E+15      -1.252
      79.500 -0.4956170E+15      -1.250
      81.500 -0.4959603E+15      -1.251
      83.500 -0.4960924E+15      -1.251
      85.500 -0.4955217E+15      -1.249
      87.500 -0.4953657E+15      -1.249
      89.500 -0.4950026E+15      -1.248
      91.500 -0.4948899E+15      -1.248
      93.500 -0.4941456E+15      -1.246
      95.500 -0.4934701E+15      -1.244
      97.500 -0.4921189E+15      -1.241
      99.500 -0.4906522E+15      -1.237
