 % time (yr) / global POC flux (mol yr-1) / global POC density (mol m-2 yr-1)
       0.500  0.1506124E+15  0.4229884E+00
       1.500  0.1442010E+15  0.4049821E+00
       2.500  0.1340282E+15  0.3764124E+00
       3.500  0.1255433E+15  0.3525830E+00
       4.500  0.1186049E+15  0.3330966E+00
       5.500  0.1129570E+15  0.3172347E+00
       6.500  0.1082576E+15  0.3040368E+00
       7.500  0.1043545E+15  0.2930752E+00
       8.500  0.1010557E+15  0.2838104E+00
       9.500  0.9822601E+14  0.2758635E+00
      10.500  0.9576203E+14  0.2689435E+00
      11.500  0.9360942E+14  0.2628980E+00
      12.500  0.9162904E+14  0.2573362E+00
      13.500  0.8976693E+14  0.2521065E+00
      14.500  0.8801950E+14  0.2471989E+00
      15.500  0.8642429E+14  0.2427189E+00
      16.500  0.8488431E+14  0.2383939E+00
      17.500  0.8345580E+14  0.2343820E+00
      18.500  0.8219057E+14  0.2308286E+00
      19.500  0.8094286E+14  0.2273245E+00
      21.500  0.7867072E+14  0.2209433E+00
      23.500  0.7665349E+14  0.2152780E+00
      25.500  0.7486301E+14  0.2102495E+00
      27.500  0.7321238E+14  0.2056138E+00
      29.500  0.7170705E+14  0.2013861E+00
      31.500  0.7030998E+14  0.1974625E+00
      33.500  0.6904359E+14  0.1939059E+00
      35.500  0.6789240E+14  0.1906728E+00
      37.500  0.6688034E+14  0.1878305E+00
      39.500  0.6596138E+14  0.1852497E+00
      41.500  0.6515173E+14  0.1829758E+00
      43.500  0.6434053E+14  0.1806976E+00
      45.500  0.6355069E+14  0.1784793E+00
      47.500  0.6279697E+14  0.1763626E+00
      49.500  0.6208087E+14  0.1743514E+00
      51.500  0.6139443E+14  0.1724236E+00
      53.500  0.6072918E+14  0.1705553E+00
      55.500  0.6009887E+14  0.1687851E+00
      57.500  0.5948905E+14  0.1670724E+00
      59.500  0.5889885E+14  0.1654148E+00
      61.500  0.5835116E+14  0.1638767E+00
      63.500  0.5781903E+14  0.1623822E+00
      65.500  0.5731574E+14  0.1609688E+00
      67.500  0.5685781E+14  0.1596827E+00
      69.500  0.5646245E+14  0.1585723E+00
      71.500  0.5610482E+14  0.1575679E+00
      73.500  0.5575179E+14  0.1565765E+00
      75.500  0.5542630E+14  0.1556623E+00
      77.500  0.5511908E+14  0.1547995E+00
      79.500  0.5483374E+14  0.1539982E+00
      81.500  0.5456772E+14  0.1532511E+00
      83.500  0.5432063E+14  0.1525571E+00
      85.500  0.5409116E+14  0.1519127E+00
      87.500  0.5387742E+14  0.1513124E+00
      89.500  0.5367454E+14  0.1507426E+00
      91.500  0.5348683E+14  0.1502154E+00
      93.500  0.5332021E+14  0.1497475E+00
      95.500  0.5314356E+14  0.1492514E+00
      97.500  0.5296922E+14  0.1487617E+00
      99.500  0.5280064E+14  0.1482883E+00
