 % time (yr) / global POP flux (mol yr-1) / global POP density (mol m-2 yr-1)
       0.500  0.1420872E+13  0.3990457E-02
       1.500  0.1360386E+13  0.3820586E-02
       2.500  0.1264417E+13  0.3551060E-02
       3.500  0.1184371E+13  0.3326255E-02
       4.500  0.1118914E+13  0.3142421E-02
       5.500  0.1065632E+13  0.2992780E-02
       6.500  0.1021298E+13  0.2868272E-02
       7.500  0.9844768E+12  0.2764860E-02
       8.500  0.9533553E+12  0.2677457E-02
       9.500  0.9266605E+12  0.2602486E-02
      10.500  0.9034154E+12  0.2537203E-02
      11.500  0.8831078E+12  0.2480170E-02
      12.500  0.8644249E+12  0.2427700E-02
      13.500  0.8468578E+12  0.2378363E-02
      14.500  0.8303727E+12  0.2332066E-02
      15.500  0.8153235E+12  0.2289801E-02
      16.500  0.8007954E+12  0.2248999E-02
      17.500  0.7873189E+12  0.2211151E-02
      18.500  0.7753828E+12  0.2177629E-02
      19.500  0.7636119E+12  0.2144571E-02
      21.500  0.7421766E+12  0.2084371E-02
      23.500  0.7231462E+12  0.2030925E-02
      25.500  0.7062548E+12  0.1983486E-02
      27.500  0.6906828E+12  0.1939753E-02
      29.500  0.6764816E+12  0.1899869E-02
      31.500  0.6633017E+12  0.1862854E-02
      33.500  0.6513547E+12  0.1829301E-02
      35.500  0.6404943E+12  0.1798800E-02
      37.500  0.6309466E+12  0.1771986E-02
      39.500  0.6222772E+12  0.1747638E-02
      41.500  0.6146390E+12  0.1726187E-02
      43.500  0.6069861E+12  0.1704694E-02
      45.500  0.5995348E+12  0.1683767E-02
      47.500  0.5924243E+12  0.1663798E-02
      49.500  0.5856686E+12  0.1644825E-02
      51.500  0.5791927E+12  0.1626638E-02
      53.500  0.5729168E+12  0.1609012E-02
      55.500  0.5669705E+12  0.1592312E-02
      57.500  0.5612174E+12  0.1576155E-02
      59.500  0.5556495E+12  0.1560517E-02
      61.500  0.5504827E+12  0.1546007E-02
      63.500  0.5454625E+12  0.1531908E-02
      65.500  0.5407145E+12  0.1518573E-02
      67.500  0.5363944E+12  0.1506440E-02
      69.500  0.5326647E+12  0.1495966E-02
      71.500  0.5292907E+12  0.1486490E-02
      73.500  0.5259603E+12  0.1477137E-02
      75.500  0.5228896E+12  0.1468513E-02
      77.500  0.5199913E+12  0.1460373E-02
      79.500  0.5172994E+12  0.1452813E-02
      81.500  0.5147898E+12  0.1445765E-02
      83.500  0.5124588E+12  0.1439218E-02
      85.500  0.5102940E+12  0.1433138E-02
      87.500  0.5082775E+12  0.1427475E-02
      89.500  0.5063636E+12  0.1422100E-02
      91.500  0.5045927E+12  0.1417127E-02
      93.500  0.5030208E+12  0.1412712E-02
      95.500  0.5013543E+12  0.1408032E-02
      97.500  0.4997096E+12  0.1403413E-02
      99.500  0.4981193E+12  0.1398946E-02
