 % time (yr) / global CaCO3 flux (mol yr-1) / global CaCO3 density (mol m-2 yr-1)
       0.500  0.1392136E+15  0.3909752E+00
       1.500  0.1559748E+15  0.4380483E+00
       2.500  0.1464158E+15  0.4112025E+00
       3.500  0.1380730E+15  0.3877720E+00
       4.500  0.1306387E+15  0.3668931E+00
       5.500  0.1241564E+15  0.3486878E+00
       6.500  0.1185721E+15  0.3330045E+00
       7.500  0.1139486E+15  0.3200198E+00
       8.500  0.1100457E+15  0.3090585E+00
       9.500  0.1065782E+15  0.2993202E+00
      10.500  0.1034655E+15  0.2905783E+00
      11.500  0.1006934E+15  0.2827931E+00
      12.500  0.9814383E+14  0.2756327E+00
      13.500  0.9577718E+14  0.2689860E+00
      14.500  0.9360327E+14  0.2628807E+00
      15.500  0.9163699E+14  0.2573585E+00
      16.500  0.8981217E+14  0.2522336E+00
      17.500  0.8814689E+14  0.2475567E+00
      18.500  0.8665671E+14  0.2433716E+00
      19.500  0.8527782E+14  0.2394990E+00
      21.500  0.8284069E+14  0.2326545E+00
      23.500  0.8077042E+14  0.2268402E+00
      25.500  0.7898262E+14  0.2218193E+00
      27.500  0.7737415E+14  0.2173019E+00
      29.500  0.7597871E+14  0.2133829E+00
      31.500  0.7472476E+14  0.2098612E+00
      33.500  0.7358793E+14  0.2066685E+00
      35.500  0.7254725E+14  0.2037458E+00
      37.500  0.7163413E+14  0.2011813E+00
      39.500  0.7083019E+14  0.1989235E+00
      41.500  0.7010775E+14  0.1968946E+00
      43.500  0.6938993E+14  0.1948786E+00
      45.500  0.6868691E+14  0.1929042E+00
      47.500  0.6801902E+14  0.1910285E+00
      49.500  0.6738391E+14  0.1892448E+00
      51.500  0.6677610E+14  0.1875378E+00
      53.500  0.6618516E+14  0.1858781E+00
      55.500  0.6562314E+14  0.1842997E+00
      57.500  0.6508972E+14  0.1828016E+00
      59.500  0.6458780E+14  0.1813920E+00
      61.500  0.6412582E+14  0.1800946E+00
      63.500  0.6368951E+14  0.1788692E+00
      65.500  0.6328583E+14  0.1777355E+00
      67.500  0.6292072E+14  0.1767101E+00
      69.500  0.6259109E+14  0.1757844E+00
      71.500  0.6228430E+14  0.1749227E+00
      73.500  0.6199613E+14  0.1741134E+00
      75.500  0.6173008E+14  0.1733662E+00
      77.500  0.6148326E+14  0.1726731E+00
      79.500  0.6125451E+14  0.1720306E+00
      81.500  0.6104096E+14  0.1714309E+00
      83.500  0.6084324E+14  0.1708756E+00
      85.500  0.6066061E+14  0.1703627E+00
      87.500  0.6049109E+14  0.1698866E+00
      89.500  0.6032836E+14  0.1694296E+00
      91.500  0.6017888E+14  0.1690098E+00
      93.500  0.6003666E+14  0.1686103E+00
      95.500  0.5988620E+14  0.1681878E+00
      97.500  0.5973959E+14  0.1677760E+00
      99.500  0.5960245E+14  0.1673909E+00
