 % time (yr) / temperature (C) / _surT (C) / _benT (degrees C)
       0.500   10.031651   12.354071    9.974104
       1.500   10.088135   15.349991    9.938194
       2.500   10.135114   17.063292    9.912251
       3.500   10.175887   18.210166    9.890540
       4.500   10.212309   19.049296    9.871157
       5.500   10.245434   19.706887    9.852846
       6.500   10.275905   20.251836    9.834524
       7.500   10.304163   20.711577    9.816472
       8.500   10.330535   21.112677    9.799143
       9.500   10.355267   21.464082    9.782602
      10.500   10.378554   21.780286    9.766478
      11.500   10.400545   22.063207    9.750896
      12.500   10.421367   22.317959    9.735649
      13.500   10.441128   22.552424    9.720521
      14.500   10.459915   22.769554    9.705449
      15.500   10.477811   22.966601    9.690675
      16.500   10.494894   23.148395    9.676320
      17.500   10.511233   23.319090    9.662400
      18.500   10.526887   23.472642    9.648801
      19.500   10.541900   23.619691    9.635724
      21.500   10.570202   23.878938    9.610757
      23.500   10.596454   24.111299    9.586901
      25.500   10.620903   24.315156    9.563676
      27.500   10.643759   24.503441    9.540923
      29.500   10.665204   24.672617    9.518726
      31.500   10.685380   24.820904    9.497568
      33.500   10.704405   24.950689    9.477103
      35.500   10.722363   25.070336    9.457309
      37.500   10.739337   25.178329    9.437393
      39.500   10.755441   25.272859    9.418884
      41.500   10.770784   25.355158    9.401746
      43.500   10.785441   25.427563    9.385943
      45.500   10.799465   25.493022    9.371367
      47.500   10.812892   25.555157    9.358144
      49.500   10.825756   25.614197    9.346305
      51.500   10.838082   25.670958    9.335753
      53.500   10.849891   25.726321    9.326638
      55.500   10.861199   25.779978    9.318673
      57.500   10.872028   25.830941    9.311663
      59.500   10.882404   25.878214    9.305470
      61.500   10.892353   25.923613    9.299960
      63.500   10.901895   25.966239    9.294956
      65.500   10.911058   26.006299    9.290603
      67.500   10.919868   26.043643    9.286726
      69.500   10.928344   26.076687    9.283240
      71.500   10.936506   26.108297    9.280111
      73.500   10.944368   26.139419    9.277322
      75.500   10.951945   26.168768    9.274802
      77.500   10.959257   26.196064    9.272603
      79.500   10.966320   26.222289    9.270630
      81.500   10.973149   26.247736    9.268843
      83.500   10.979757   26.271640    9.267292
      85.500   10.986157   26.293980    9.265937
      87.500   10.992361   26.315342    9.264725
      89.500   10.998387   26.334556    9.263629
      91.500   11.004252   26.352297    9.262657
      93.500   11.009968   26.368754    9.261785
      95.500   11.015551   26.382674    9.260997
      97.500   11.021011   26.395885    9.260355
      99.500   11.026351   26.409162    9.259905
