 % time (yr) / surface air temperature (degrees C)
       0.500    7.496662
       1.500   10.565501
       2.500   12.417453
       3.500   13.663822
       4.500   14.572712
       5.500   15.281059
       6.500   15.861468
       7.500   16.350903
       8.500   16.771740
       9.500   17.139689
      10.500   17.466159
      11.500   17.760621
      12.500   18.027165
      13.500   18.270687
      14.500   18.493299
      15.500   18.698491
      16.500   18.885422
      17.500   19.057050
      18.500   19.216314
      19.500   19.363585
      21.500   19.627705
      23.500   19.856129
      25.500   20.056705
      27.500   20.233050
      29.500   20.388374
      31.500   20.530646
      33.500   20.664375
      35.500   20.788393
      37.500   20.901717
      39.500   21.001456
      41.500   21.091034
      43.500   21.172449
      45.500   21.248981
      47.500   21.321233
      49.500   21.389735
      51.500   21.455200
      53.500   21.518392
      55.500   21.579413
      57.500   21.637452
      59.500   21.692040
      61.500   21.744090
      63.500   21.792944
      65.500   21.838685
      67.500   21.881320
      69.500   21.921438
      71.500   21.959517
      73.500   21.995736
      75.500   22.029691
      77.500   22.061495
      79.500   22.091380
      81.500   22.119625
      83.500   22.146156
      85.500   22.171112
      87.500   22.194698
      89.500   22.215941
      91.500   22.235543
      93.500   22.253555
      95.500   22.269619
      97.500   22.285043
      99.500   22.299891
