 % time (yr) / global CaCO3_13C flux (mol yr-1) / global CaCO3_13C delta (o/oo)
       0.500  0.1547122E+13         3.231
       1.500  0.1734598E+13         3.936
       2.500  0.1628683E+13         4.178
       3.500  0.1536022E+13         4.272
       4.500  0.1453369E+13         4.309
       5.500  0.1381286E+13         4.333
       6.500  0.1319165E+13         4.338
       7.500  0.1267722E+13         4.334
       8.500  0.1224289E+13         4.324
       9.500  0.1185703E+13         4.317
      10.500  0.1151064E+13         4.309
      11.500  0.1120215E+13         4.299
      12.500  0.1091840E+13         4.289
      13.500  0.1065501E+13         4.280
      14.500  0.1041306E+13         4.269
      15.500  0.1019421E+13         4.258
      16.500  0.9991105E+12         4.248
      17.500  0.9805762E+12         4.239
      18.500  0.9639888E+12         4.228
      19.500  0.9486408E+12         4.219
      21.500  0.9215128E+12         4.200
      23.500  0.8984681E+12         4.183
      25.500  0.8785682E+12         4.168
      27.500  0.8606659E+12         4.156
      29.500  0.8451351E+12         4.145
      31.500  0.8311790E+12         4.135
      33.500  0.8185264E+12         4.126
      35.500  0.8069432E+12         4.117
      37.500  0.7967785E+12         4.106
      39.500  0.7878285E+12         4.096
      41.500  0.7797853E+12         4.086
      43.500  0.7717937E+12         4.076
      45.500  0.7639671E+12         4.067
      47.500  0.7565316E+12         4.058
      49.500  0.7494609E+12         4.048
      51.500  0.7426941E+12         4.039
      53.500  0.7361154E+12         4.031
      55.500  0.7298586E+12         4.022
      57.500  0.7239205E+12         4.015
      59.500  0.7183331E+12         4.008
      61.500  0.7131900E+12         4.001
      63.500  0.7083330E+12         3.994
      65.500  0.7038388E+12         3.987
      67.500  0.6997738E+12         3.981
      69.500  0.6961038E+12         3.975
      71.500  0.6926880E+12         3.970
      73.500  0.6894795E+12         3.964
      75.500  0.6865174E+12         3.959
      77.500  0.6837693E+12         3.955
      79.500  0.6812222E+12         3.950
      81.500  0.6788444E+12         3.946
      83.500  0.6766427E+12         3.941
      85.500  0.6746090E+12         3.938
      87.500  0.6727213E+12         3.934
      89.500  0.6709091E+12         3.930
      91.500  0.6692444E+12         3.926
      93.500  0.6676607E+12         3.923
      95.500  0.6659861E+12         3.921
      97.500  0.6643541E+12         3.919
      99.500  0.6628275E+12         3.916
