 % time (yr) / global sea-ice area (m2) / mean sea-ice cover (%) / global sea-ice volume (m3) / mean sea-ice thickness (m)
    2010.500  0.1179E+13    0.321  0.1542E+12    0.088
    2011.500  0.7601E+13    2.068  0.1872E+13    0.228
    2012.500  0.1343E+14    3.654  0.5964E+13    0.412
    2013.500  0.1689E+14    4.595  0.1085E+14    0.604
    2014.500  0.2184E+14    5.944  0.1580E+14    0.702
    2015.500  0.2628E+14    7.152  0.2043E+14    0.778
    2016.500  0.2918E+14    7.941  0.2451E+14    0.841
    2017.500  0.3170E+14    8.626  0.2793E+14    0.886
    2018.500  0.3365E+14    9.156  0.3087E+14    0.924
    2019.500  0.3524E+14    9.591  0.3369E+14    0.955
    2020.500  0.3683E+14   10.021  0.3651E+14    0.986
    2021.500  0.3769E+14   10.257  0.3937E+14    1.039
    2022.500  0.3824E+14   10.405  0.4191E+14    1.091
    2023.500  0.3849E+14   10.473  0.4428E+14    1.146
    2024.500  0.3872E+14   10.537  0.4665E+14    1.201
    2025.500  0.3878E+14   10.553  0.4870E+14    1.253
    2026.500  0.3896E+14   10.601  0.5054E+14    1.295
    2027.500  0.3935E+14   10.709  0.5208E+14    1.321
    2028.500  0.3935E+14   10.708  0.5327E+14    1.352
    2029.500  0.3938E+14   10.717  0.5410E+14    1.372
    2030.500  0.3924E+14   10.679  0.5464E+14    1.391
    2031.500  0.3904E+14   10.623  0.5485E+14    1.404
    2032.500  0.3872E+14   10.537  0.5479E+14    1.415
    2033.500  0.3835E+14   10.437  0.5454E+14    1.422
    2034.500  0.3807E+14   10.360  0.5418E+14    1.424
    2035.500  0.3763E+14   10.240  0.5371E+14    1.430
    2036.500  0.3720E+14   10.123  0.5316E+14    1.434
    2037.500  0.3701E+14   10.072  0.5255E+14    1.425
    2038.500  0.3663E+14    9.967  0.5192E+14    1.424
    2039.500  0.3629E+14    9.875  0.5131E+14    1.421
    2040.500  0.3603E+14    9.806  0.5069E+14    1.415
    2041.500  0.3586E+14    9.758  0.5005E+14    1.404
    2042.500  0.3571E+14    9.716  0.4942E+14    1.393
    2043.500  0.3545E+14    9.648  0.4882E+14    1.386
    2044.500  0.3529E+14    9.604  0.4828E+14    1.377
    2045.500  0.3491E+14    9.501  0.4769E+14    1.376
    2046.500  0.3470E+14    9.442  0.4709E+14    1.368
    2047.500  0.3436E+14    9.350  0.4651E+14    1.366
    2048.500  0.3421E+14    9.308  0.4601E+14    1.356
    2049.500  0.3399E+14    9.249  0.4554E+14    1.352
    2050.500  0.3380E+14    9.198  0.4505E+14    1.345
    2051.500  0.3367E+14    9.163  0.4454E+14    1.335
    2052.500  0.3345E+14    9.104  0.4407E+14    1.330
    2053.500  0.3340E+14    9.089  0.4364E+14    1.319
    2054.500  0.3319E+14    9.031  0.4319E+14    1.315
    2055.500  0.3307E+14    8.999  0.4281E+14    1.308
    2056.500  0.3301E+14    8.983  0.4240E+14    1.297
    2057.500  0.3285E+14    8.940  0.4208E+14    1.294
    2058.500  0.3277E+14    8.918  0.4180E+14    1.289
    2059.500  0.3268E+14    8.894  0.4152E+14    1.283
    2060.500  0.3257E+14    8.864  0.4124E+14    1.279
    2061.500  0.3236E+14    8.805  0.4090E+14    1.276
    2062.500  0.3227E+14    8.781  0.4065E+14    1.272
    2063.500  0.3215E+14    8.750  0.4045E+14    1.270
    2064.500  0.3217E+14    8.754  0.4027E+14    1.264
    2065.500  0.3205E+14    8.720  0.4004E+14    1.262
    2066.500  0.3195E+14    8.695  0.3982E+14    1.258
    2067.500  0.3189E+14    8.678  0.3963E+14    1.255
    2068.500  0.3184E+14    8.664  0.3948E+14    1.252
    2069.500  0.3160E+14    8.600  0.3924E+14    1.253
    2070.500  0.3149E+14    8.570  0.3909E+14    1.252
    2071.500  0.3143E+14    8.554  0.3898E+14    1.251
    2072.500  0.3147E+14    8.563  0.3887E+14    1.246
    2073.500  0.3140E+14    8.544  0.3875E+14    1.244
    2074.500  0.3142E+14    8.550  0.3869E+14    1.241
    2075.500  0.3136E+14    8.534  0.3860E+14    1.240
    2076.500  0.3116E+14    8.479  0.3843E+14    1.242
    2077.500  0.3112E+14    8.468  0.3830E+14    1.240
    2078.500  0.3107E+14    8.454  0.3816E+14    1.237
    2079.500  0.3108E+14    8.458  0.3803E+14    1.232
    2080.500  0.3091E+14    8.411  0.3777E+14    1.230
    2081.500  0.3081E+14    8.384  0.3754E+14    1.226
    2082.500  0.3075E+14    8.367  0.3736E+14    1.222
    2083.500  0.3074E+14    8.366  0.3721E+14    1.218
    2084.500  0.3069E+14    8.351  0.3708E+14    1.216
    2085.500  0.3060E+14    8.326  0.3695E+14    1.215
    2086.500  0.3041E+14    8.276  0.3678E+14    1.216
    2087.500  0.3020E+14    8.219  0.3665E+14    1.219
    2088.500  0.3056E+14    8.316  0.3664E+14    1.206
    2089.500  0.3035E+14    8.260  0.3655E+14    1.210
    2090.500  0.3014E+14    8.202  0.3644E+14    1.214
    2091.500  0.2991E+14    8.140  0.3632E+14    1.219
    2092.500  0.2992E+14    8.142  0.3626E+14    1.216
    2093.500  0.2970E+14    8.083  0.3609E+14    1.219
    2094.500  0.2978E+14    8.104  0.3596E+14    1.212
    2095.500  0.2974E+14    8.092  0.3584E+14    1.209
    2096.500  0.2980E+14    8.110  0.3574E+14    1.203
    2097.500  0.2988E+14    8.130  0.3572E+14    1.199
    2098.500  0.2985E+14    8.122  0.3566E+14    1.199
    2099.500  0.2954E+14    8.038  0.3558E+14    1.208
    2100.500  0.2963E+14    8.063  0.3554E+14    1.203
    2101.500  0.2965E+14    8.069  0.3559E+14    1.203
    2102.500  0.2958E+14    8.050  0.3568E+14    1.209
    2103.500  0.2958E+14    8.049  0.3579E+14    1.213
    2104.500  0.2945E+14    8.015  0.3587E+14    1.221
    2105.500  0.2952E+14    8.034  0.3599E+14    1.222
    2106.500  0.2944E+14    8.011  0.3604E+14    1.228
    2107.500  0.2946E+14    8.016  0.3612E+14    1.229
    2108.500  0.2948E+14    8.021  0.3618E+14    1.231
    2109.500  0.2952E+14    8.034  0.3622E+14    1.230
