 % time (yr) / surface air temperature (degrees C)
    2010.500   -2.734896
    2011.500   -0.104440
    2012.500    1.593419
    2013.500    2.633393
    2014.500    3.328246
    2015.500    3.810561
    2016.500    4.203096
    2017.500    4.533398
    2018.500    4.824933
    2019.500    5.067968
    2020.500    5.277462
    2021.500    5.477333
    2022.500    5.669978
    2023.500    5.851007
    2024.500    6.022847
    2025.500    6.189660
    2026.500    6.343035
    2027.500    6.489662
    2028.500    6.633011
    2029.500    6.772866
    2030.500    6.908566
    2031.500    7.041283
    2032.500    7.171765
    2033.500    7.300115
    2034.500    7.424563
    2035.500    7.544876
    2036.500    7.661172
    2037.500    7.772689
    2038.500    7.879478
    2039.500    7.979244
    2040.500    8.074657
    2041.500    8.167698
    2042.500    8.257406
    2043.500    8.344708
    2044.500    8.427796
    2045.500    8.508226
    2046.500    8.587376
    2047.500    8.663359
    2048.500    8.735931
    2049.500    8.805262
    2050.500    8.872254
    2051.500    8.937552
    2052.500    9.000399
    2053.500    9.060494
    2054.500    9.119105
    2055.500    9.175643
    2056.500    9.229105
    2057.500    9.281192
    2058.500    9.331085
    2059.500    9.378350
    2060.500    9.423939
    2061.500    9.469856
    2062.500    9.513794
    2063.500    9.556340
    2064.500    9.597716
    2065.500    9.637703
    2066.500    9.675915
    2067.500    9.713587
    2068.500    9.751360
    2069.500    9.785797
    2070.500    9.819587
    2071.500    9.853346
    2072.500    9.884560
    2073.500    9.912655
    2074.500    9.941285
    2075.500    9.970566
    2076.500   10.000020
    2077.500   10.029894
    2078.500   10.058318
    2079.500   10.088858
    2080.500   10.116512
    2081.500   10.146957
    2082.500   10.173745
    2083.500   10.202400
    2084.500   10.228746
    2085.500   10.254333
    2086.500   10.280460
    2087.500   10.306800
    2088.500   10.331142
    2089.500   10.354822
    2090.500   10.377266
    2091.500   10.399590
    2092.500   10.422096
    2093.500   10.444642
    2094.500   10.467302
    2095.500   10.487887
    2096.500   10.510467
    2097.500   10.530515
    2098.500   10.551350
    2099.500   10.571266
    2100.500   10.580448
    2101.500   10.562262
    2102.500   10.537808
    2103.500   10.510821
    2104.500   10.483704
    2105.500   10.457263
    2106.500   10.432834
    2107.500   10.409678
    2108.500   10.388966
    2109.500   10.370767
