 % time (yr) / global POC flux (mol yr-1) / global POC density (mol m-2 yr-1)
    2010.500  0.1611718E+16  0.4385897E+01
    2011.500  0.1471182E+16  0.4003462E+01
    2012.500  0.1350205E+16  0.3674253E+01
    2013.500  0.1257015E+16  0.3420661E+01
    2014.500  0.1182207E+16  0.3217087E+01
    2015.500  0.1120707E+16  0.3049732E+01
    2016.500  0.1068701E+16  0.2908209E+01
    2017.500  0.1024861E+16  0.2788910E+01
    2018.500  0.9848976E+15  0.2680158E+01
    2019.500  0.9470708E+15  0.2577222E+01
    2020.500  0.9104076E+15  0.2477452E+01
    2021.500  0.8799806E+15  0.2394652E+01
    2022.500  0.8527346E+15  0.2320509E+01
    2023.500  0.8275700E+15  0.2252030E+01
    2024.500  0.8034588E+15  0.2186417E+01
    2025.500  0.7813989E+15  0.2126387E+01
    2026.500  0.7605483E+15  0.2069647E+01
    2027.500  0.7404385E+15  0.2014923E+01
    2028.500  0.7226295E+15  0.1966460E+01
    2029.500  0.7060026E+15  0.1921214E+01
    2030.500  0.6908071E+15  0.1879863E+01
    2031.500  0.6770047E+15  0.1842303E+01
    2032.500  0.6645934E+15  0.1808529E+01
    2033.500  0.6531744E+15  0.1777455E+01
    2034.500  0.6425040E+15  0.1748418E+01
    2035.500  0.6329906E+15  0.1722529E+01
    2036.500  0.6243714E+15  0.1699074E+01
    2037.500  0.6162098E+15  0.1676865E+01
    2038.500  0.6089517E+15  0.1657113E+01
    2039.500  0.6023141E+15  0.1639051E+01
    2040.500  0.5962257E+15  0.1622483E+01
    2041.500  0.5904516E+15  0.1606770E+01
    2042.500  0.5850264E+15  0.1592007E+01
    2043.500  0.5799321E+15  0.1578144E+01
    2044.500  0.5751167E+15  0.1565040E+01
    2045.500  0.5710144E+15  0.1553876E+01
    2046.500  0.5669030E+15  0.1542688E+01
    2047.500  0.5631200E+15  0.1532394E+01
    2048.500  0.5592790E+15  0.1521941E+01
    2049.500  0.5559042E+15  0.1512758E+01
    2050.500  0.5527375E+15  0.1504140E+01
    2051.500  0.5495132E+15  0.1495366E+01
    2052.500  0.5465610E+15  0.1487332E+01
    2053.500  0.5434221E+15  0.1478791E+01
    2054.500  0.5406419E+15  0.1471225E+01
    2055.500  0.5378430E+15  0.1463608E+01
    2056.500  0.5351104E+15  0.1456172E+01
    2057.500  0.5326306E+15  0.1449424E+01
    2058.500  0.5300620E+15  0.1442434E+01
    2059.500  0.5275966E+15  0.1435725E+01
    2060.500  0.5252055E+15  0.1429219E+01
    2061.500  0.5231926E+15  0.1423741E+01
    2062.500  0.5209615E+15  0.1417670E+01
    2063.500  0.5188834E+15  0.1412015E+01
    2064.500  0.5165991E+15  0.1405798E+01
    2065.500  0.5146566E+15  0.1400512E+01
    2066.500  0.5127544E+15  0.1395336E+01
    2067.500  0.5108306E+15  0.1390101E+01
    2068.500  0.5089906E+15  0.1385094E+01
    2069.500  0.5075542E+15  0.1381185E+01
    2070.500  0.5059594E+15  0.1376845E+01
    2071.500  0.5042158E+15  0.1372100E+01
    2072.500  0.5024611E+15  0.1367325E+01
    2073.500  0.5009724E+15  0.1363274E+01
    2074.500  0.4993047E+15  0.1358736E+01
    2075.500  0.4978445E+15  0.1354762E+01
    2076.500  0.4966861E+15  0.1351610E+01
    2077.500  0.4951882E+15  0.1347534E+01
    2078.500  0.4938481E+15  0.1343887E+01
    2079.500  0.4924396E+15  0.1340054E+01
    2080.500  0.4914031E+15  0.1337234E+01
    2081.500  0.4902567E+15  0.1334114E+01
    2082.500  0.4889412E+15  0.1330534E+01
    2083.500  0.4876233E+15  0.1326948E+01
    2084.500  0.4864617E+15  0.1323787E+01
    2085.500  0.4853552E+15  0.1320776E+01
    2086.500  0.4845753E+15  0.1318653E+01
    2087.500  0.4838333E+15  0.1316634E+01
    2088.500  0.4821441E+15  0.1312038E+01
    2089.500  0.4815492E+15  0.1310419E+01
    2090.500  0.4807514E+15  0.1308248E+01
    2091.500  0.4801664E+15  0.1306656E+01
    2092.500  0.4791613E+15  0.1303920E+01
    2093.500  0.4785660E+15  0.1302301E+01
    2094.500  0.4774159E+15  0.1299171E+01
    2095.500  0.4767292E+15  0.1297302E+01
    2096.500  0.4758785E+15  0.1294987E+01
    2097.500  0.4749143E+15  0.1292363E+01
    2098.500  0.4741284E+15  0.1290225E+01
    2099.500  0.4738354E+15  0.1289428E+01
    2100.500  0.4729808E+15  0.1287102E+01
    2101.500  0.4724251E+15  0.1285590E+01
    2102.500  0.4723361E+15  0.1285347E+01
    2103.500  0.4721917E+15  0.1284954E+01
    2104.500  0.4722430E+15  0.1285094E+01
    2105.500  0.4720205E+15  0.1284489E+01
    2106.500  0.4720930E+15  0.1284686E+01
    2107.500  0.4719453E+15  0.1284284E+01
    2108.500  0.4718761E+15  0.1284096E+01
    2109.500  0.4716992E+15  0.1283614E+01
