 % time (yr) / global POP flux (mol yr-1) / global POP density (mol m-2 yr-1)
    2010.500  0.1520489E+14  0.4137639E-01
    2011.500  0.1387907E+14  0.3776851E-01
    2012.500  0.1273778E+14  0.3466276E-01
    2013.500  0.1185864E+14  0.3227038E-01
    2014.500  0.1115289E+14  0.3034988E-01
    2015.500  0.1057271E+14  0.2877105E-01
    2016.500  0.1008208E+14  0.2743593E-01
    2017.500  0.9668504E+13  0.2631047E-01
    2018.500  0.9291486E+13  0.2528451E-01
    2019.500  0.8934630E+13  0.2431341E-01
    2020.500  0.8588751E+13  0.2337219E-01
    2021.500  0.8301704E+13  0.2259106E-01
    2022.500  0.8044666E+13  0.2189160E-01
    2023.500  0.7807264E+13  0.2124556E-01
    2024.500  0.7579800E+13  0.2062658E-01
    2025.500  0.7371688E+13  0.2006025E-01
    2026.500  0.7174984E+13  0.1952497E-01
    2027.500  0.6985269E+13  0.1900871E-01
    2028.500  0.6817259E+13  0.1855151E-01
    2029.500  0.6660402E+13  0.1812466E-01
    2030.500  0.6517048E+13  0.1773456E-01
    2031.500  0.6386837E+13  0.1738022E-01
    2032.500  0.6269749E+13  0.1706159E-01
    2033.500  0.6162023E+13  0.1676844E-01
    2034.500  0.6061359E+13  0.1649451E-01
    2035.500  0.5971609E+13  0.1625028E-01
    2036.500  0.5890296E+13  0.1602900E-01
    2037.500  0.5813300E+13  0.1581948E-01
    2038.500  0.5744827E+13  0.1563315E-01
    2039.500  0.5682209E+13  0.1546274E-01
    2040.500  0.5624771E+13  0.1530644E-01
    2041.500  0.5570298E+13  0.1515821E-01
    2042.500  0.5519117E+13  0.1501893E-01
    2043.500  0.5471058E+13  0.1488815E-01
    2044.500  0.5425629E+13  0.1476452E-01
    2045.500  0.5386928E+13  0.1465921E-01
    2046.500  0.5348142E+13  0.1455366E-01
    2047.500  0.5312453E+13  0.1445654E-01
    2048.500  0.5276217E+13  0.1435794E-01
    2049.500  0.5244379E+13  0.1427130E-01
    2050.500  0.5214504E+13  0.1419000E-01
    2051.500  0.5184087E+13  0.1410723E-01
    2052.500  0.5156236E+13  0.1403144E-01
    2053.500  0.5126623E+13  0.1395085E-01
    2054.500  0.5100395E+13  0.1387948E-01
    2055.500  0.5073990E+13  0.1380763E-01
    2056.500  0.5048211E+13  0.1373747E-01
    2057.500  0.5024817E+13  0.1367381E-01
    2058.500  0.5000584E+13  0.1360787E-01
    2059.500  0.4977326E+13  0.1354458E-01
    2060.500  0.4954769E+13  0.1348320E-01
    2061.500  0.4935780E+13  0.1343152E-01
    2062.500  0.4914731E+13  0.1337424E-01
    2063.500  0.4895127E+13  0.1332089E-01
    2064.500  0.4873576E+13  0.1326225E-01
    2065.500  0.4855251E+13  0.1321238E-01
    2066.500  0.4837306E+13  0.1316355E-01
    2067.500  0.4819156E+13  0.1311416E-01
    2068.500  0.4801798E+13  0.1306692E-01
    2069.500  0.4788247E+13  0.1303005E-01
    2070.500  0.4773202E+13  0.1298910E-01
    2071.500  0.4756753E+13  0.1294434E-01
    2072.500  0.4740199E+13  0.1289929E-01
    2073.500  0.4726154E+13  0.1286108E-01
    2074.500  0.4710421E+13  0.1281826E-01
    2075.500  0.4696646E+13  0.1278078E-01
    2076.500  0.4685718E+13  0.1275104E-01
    2077.500  0.4671587E+13  0.1271258E-01
    2078.500  0.4658945E+13  0.1267818E-01
    2079.500  0.4645657E+13  0.1264202E-01
    2080.500  0.4635879E+13  0.1261541E-01
    2081.500  0.4625063E+13  0.1258598E-01
    2082.500  0.4612653E+13  0.1255221E-01
    2083.500  0.4600220E+13  0.1251838E-01
    2084.500  0.4589262E+13  0.1248856E-01
    2085.500  0.4578823E+13  0.1246015E-01
    2086.500  0.4571465E+13  0.1244013E-01
    2087.500  0.4564465E+13  0.1242108E-01
    2088.500  0.4548529E+13  0.1237771E-01
    2089.500  0.4542917E+13  0.1236244E-01
    2090.500  0.4535390E+13  0.1234196E-01
    2091.500  0.4529871E+13  0.1232694E-01
    2092.500  0.4520389E+13  0.1230114E-01
    2093.500  0.4514774E+13  0.1228585E-01
    2094.500  0.4503923E+13  0.1225633E-01
    2095.500  0.4497445E+13  0.1223870E-01
    2096.500  0.4489420E+13  0.1221686E-01
    2097.500  0.4480324E+13  0.1219211E-01
    2098.500  0.4472909E+13  0.1217193E-01
    2099.500  0.4470146E+13  0.1216441E-01
    2100.500  0.4462083E+13  0.1214247E-01
    2101.500  0.4456841E+13  0.1212820E-01
    2102.500  0.4456001E+13  0.1212592E-01
    2103.500  0.4454638E+13  0.1212221E-01
    2104.500  0.4455123E+13  0.1212353E-01
    2105.500  0.4453024E+13  0.1211782E-01
    2106.500  0.4453707E+13  0.1211968E-01
    2107.500  0.4452314E+13  0.1211589E-01
    2108.500  0.4451662E+13  0.1211411E-01
    2109.500  0.4449992E+13  0.1210957E-01
