 % time (yr) / temperature (C) / _surT (C) / _benT (degrees C)
    2010.500    0.047754    2.864539   -0.022393
    2011.500    0.112291    6.241073   -0.059466
    2012.500    0.166157    8.211368   -0.088029
    2013.500    0.213574    9.467609   -0.112422
    2014.500    0.256609   10.437143   -0.133873
    2015.500    0.296467   11.212763   -0.152641
    2016.500    0.333700   11.822337   -0.169306
    2017.500    0.368770   12.346395   -0.184269
    2018.500    0.401964   12.797477   -0.197873
    2019.500    0.433398   13.191887   -0.210405
    2020.500    0.463217   13.551824   -0.221978
    2021.500    0.491684   13.850897   -0.232497
    2022.500    0.519075   14.113850   -0.242173
    2023.500    0.545501   14.343425   -0.250895
    2024.500    0.570996   14.554373   -0.258885
    2025.500    0.595697   14.743437   -0.266652
    2026.500    0.619624   14.921943   -0.273832
    2027.500    0.642804   15.101041   -0.280424
    2028.500    0.665245   15.250963   -0.286623
    2029.500    0.687021   15.396029   -0.292344
    2030.500    0.708145   15.524433   -0.297913
    2031.500    0.728670   15.643226   -0.303396
    2032.500    0.748636   15.751480   -0.308700
    2033.500    0.768070   15.852795   -0.313948
    2034.500    0.786989   15.954172   -0.319105
    2035.500    0.805420   16.042397   -0.324158
    2036.500    0.823391   16.127299   -0.329056
    2037.500    0.840904   16.219333   -0.333956
    2038.500    0.857982   16.296890   -0.338892
    2039.500    0.874646   16.370980   -0.343803
    2040.500    0.890913   16.444955   -0.348950
    2041.500    0.906794   16.520038   -0.354327
    2042.500    0.922308   16.593472   -0.359824
    2043.500    0.937470   16.659230   -0.365373
    2044.500    0.952294   16.726356   -0.370941
    2045.500    0.966793   16.778730   -0.376387
    2046.500    0.980979   16.838275   -0.381713
    2047.500    0.994861   16.888386   -0.386962
    2048.500    1.008448   16.945793   -0.392212
    2049.500    1.021749   16.996685   -0.397498
    2050.500    1.034782   17.046306   -0.402683
    2051.500    1.047543   17.097234   -0.407777
    2052.500    1.060049   17.141409   -0.412743
    2053.500    1.072307   17.192099   -0.417668
    2054.500    1.084323   17.232766   -0.422493
    2055.500    1.096111   17.276081   -0.427210
    2056.500    1.107673   17.320628   -0.431874
    2057.500    1.119022   17.358076   -0.436553
    2058.500    1.130171   17.398497   -0.441188
    2059.500    1.141122   17.436435   -0.445827
    2060.500    1.151882   17.471270   -0.450290
    2061.500    1.162455   17.498929   -0.454814
    2062.500    1.172862   17.533025   -0.459348
    2063.500    1.183099   17.564043   -0.463780
    2064.500    1.193172   17.601740   -0.468145
    2065.500    1.203080   17.630344   -0.472455
    2066.500    1.212836   17.659491   -0.476914
    2067.500    1.222437   17.689687   -0.481399
    2068.500    1.231890   17.719482   -0.485820
    2069.500    1.241202   17.738042   -0.490227
    2070.500    1.250377   17.761812   -0.494575
    2071.500    1.259422   17.788441   -0.498861
    2072.500    1.268340   17.818737   -0.502997
    2073.500    1.277138   17.841027   -0.507046
    2074.500    1.285824   17.868366   -0.511126
    2075.500    1.294393   17.891375   -0.515175
    2076.500    1.302847   17.906046   -0.519110
    2077.500    1.311189   17.929784   -0.523011
    2078.500    1.319407   17.951944   -0.526950
    2079.500    1.327514   17.977658   -0.530950
    2080.500    1.335511   17.992304   -0.535001
    2081.500    1.343401   18.011409   -0.539130
    2082.500    1.351183   18.032198   -0.543252
    2083.500    1.358860   18.055701   -0.547206
    2084.500    1.366446   18.076193   -0.551164
    2085.500    1.373913   18.092871   -0.555104
    2086.500    1.381284   18.104433   -0.559056
    2087.500    1.388567   18.114515   -0.562951
    2088.500    1.395749   18.156016   -0.566815
    2089.500    1.402839   18.164400   -0.570604
    2090.500    1.409858   18.172483   -0.574238
    2091.500    1.416773   18.179089   -0.577810
    2092.500    1.423591   18.199107   -0.581370
    2093.500    1.430330   18.206508   -0.584861
    2094.500    1.437000   18.229946   -0.588292
    2095.500    1.443589   18.245541   -0.591766
    2096.500    1.450098   18.267715   -0.595163
    2097.500    1.456537   18.289631   -0.598426
    2098.500    1.462893   18.305221   -0.601626
    2099.500    1.469177   18.305117   -0.604794
    2100.500    1.475292   18.323689   -0.607898
    2101.500    1.480881   18.323366   -0.610982
    2102.500    1.485991   18.309030   -0.614025
    2103.500    1.490747   18.294523   -0.617063
    2104.500    1.495219   18.272177   -0.620069
    2105.500    1.499459   18.260490   -0.622890
    2106.500    1.503507   18.240333   -0.625685
    2107.500    1.507399   18.226111   -0.628405
    2108.500    1.511157   18.212864   -0.631179
    2109.500    1.514805   18.202450   -0.634027
