 % time (yr) / mean annual Sw flux at ocean surface (W m-2)
    2010.500  0.2489E+03
    2011.500  0.2536E+03
    2012.500  0.2577E+03
    2013.500  0.2602E+03
    2014.500  0.2637E+03
    2015.500  0.2671E+03
    2016.500  0.2694E+03
    2017.500  0.2713E+03
    2018.500  0.2729E+03
    2019.500  0.2743E+03
    2020.500  0.2757E+03
    2021.500  0.2764E+03
    2022.500  0.2769E+03
    2023.500  0.2771E+03
    2024.500  0.2773E+03
    2025.500  0.2774E+03
    2026.500  0.2775E+03
    2027.500  0.2779E+03
    2028.500  0.2779E+03
    2029.500  0.2779E+03
    2030.500  0.2778E+03
    2031.500  0.2776E+03
    2032.500  0.2774E+03
    2033.500  0.2770E+03
    2034.500  0.2768E+03
    2035.500  0.2764E+03
    2036.500  0.2761E+03
    2037.500  0.2759E+03
    2038.500  0.2756E+03
    2039.500  0.2753E+03
    2040.500  0.2751E+03
    2041.500  0.2750E+03
    2042.500  0.2748E+03
    2043.500  0.2746E+03
    2044.500  0.2745E+03
    2045.500  0.2742E+03
    2046.500  0.2740E+03
    2047.500  0.2737E+03
    2048.500  0.2736E+03
    2049.500  0.2734E+03
    2050.500  0.2732E+03
    2051.500  0.2731E+03
    2052.500  0.2729E+03
    2053.500  0.2729E+03
    2054.500  0.2727E+03
    2055.500  0.2726E+03
    2056.500  0.2726E+03
    2057.500  0.2724E+03
    2058.500  0.2724E+03
    2059.500  0.2723E+03
    2060.500  0.2722E+03
    2061.500  0.2720E+03
    2062.500  0.2719E+03
    2063.500  0.2719E+03
    2064.500  0.2719E+03
    2065.500  0.2718E+03
    2066.500  0.2717E+03
    2067.500  0.2716E+03
    2068.500  0.2716E+03
    2069.500  0.2714E+03
    2070.500  0.2713E+03
    2071.500  0.2713E+03
    2072.500  0.2713E+03
    2073.500  0.2712E+03
    2074.500  0.2712E+03
    2075.500  0.2712E+03
    2076.500  0.2710E+03
    2077.500  0.2710E+03
    2078.500  0.2710E+03
    2079.500  0.2710E+03
    2080.500  0.2708E+03
    2081.500  0.2707E+03
    2082.500  0.2707E+03
    2083.500  0.2707E+03
    2084.500  0.2706E+03
    2085.500  0.2706E+03
    2086.500  0.2704E+03
    2087.500  0.2703E+03
    2088.500  0.2705E+03
    2089.500  0.2704E+03
    2090.500  0.2702E+03
    2091.500  0.2700E+03
    2092.500  0.2700E+03
    2093.500  0.2699E+03
    2094.500  0.2699E+03
    2095.500  0.2699E+03
    2096.500  0.2699E+03
    2097.500  0.2700E+03
    2098.500  0.2700E+03
    2099.500  0.2697E+03
    2100.500  0.2698E+03
    2101.500  0.2698E+03
    2102.500  0.2697E+03
    2103.500  0.2697E+03
    2104.500  0.2697E+03
    2105.500  0.2697E+03
    2106.500  0.2697E+03
    2107.500  0.2697E+03
    2108.500  0.2697E+03
    2109.500  0.2697E+03
