 % time (yr) / mean (land) surface air temperature (degrees C)
       0.500   -4.865451
       1.500   -4.135966
       2.500   -3.183070
       3.500   -2.419313
       4.500   -1.679006
       5.500   -0.978581
       6.500   -0.348599
       7.500    0.216657
       8.500    0.713371
       9.500    1.165088
      10.500    1.564056
      11.500    1.909297
      12.500    2.222924
      13.500    2.510972
      14.500    2.765436
      15.500    2.987426
      16.500    3.188835
      17.500    3.352969
      18.500    3.518117
      19.500    3.667861
      21.500    3.945642
      23.500    4.206134
      25.500    4.475854
      27.500    4.714010
      29.500    4.922746
      31.500    5.118556
      33.500    5.298252
      35.500    5.455960
      37.500    5.603348
      39.500    5.750226
      41.500    5.889053
      43.500    6.017556
      45.500    6.130818
      47.500    6.237332
      49.500    6.341404
      51.500    6.442921
      53.500    6.542842
      55.500    6.632629
      57.500    6.726249
      59.500    6.803271
      61.500    6.874203
      63.500    6.939332
      65.500    7.000119
      67.500    7.059041
      69.500    7.117313
      71.500    7.169762
      73.500    7.218235
      75.500    7.266717
      77.500    7.310321
      79.500    7.351860
      81.500    7.392975
      83.500    7.430624
      85.500    7.467842
      87.500    7.501733
      89.500    7.533729
      91.500    7.564358
      93.500    7.597377
      95.500    7.627982
      97.500    7.654930
      99.500    7.682279
