 % time (yr) / global pCO2_13C sea->air transfer flux (mol yr-1) / global pCO2_13C (o/oo)
       0.500  0.2515560E+14       -19.606
       1.500  0.1573196E+14       -20.452
       2.500  0.1158790E+14       -19.888
       3.500  0.8696678E+13       -19.074
       4.500  0.6769127E+13       -17.955
       5.500  0.5339540E+13       -16.636
       6.500  0.4260904E+13       -15.081
       7.500  0.3399780E+13       -13.305
       8.500  0.2652237E+13       -11.105
       9.500  0.2052357E+13        -8.375
      10.500  0.1539009E+13        -4.599
      11.500  0.1142738E+13         0.809
      12.500  0.8452149E+12         7.962
      13.500  0.6552397E+12        15.887
      14.500  0.4827220E+12        28.351
      15.500  0.2807617E+12        63.618
      16.500  0.7435177E+11       380.197
      17.500 -0.7141528E+11      -242.509
      18.500 -0.1388132E+12      -143.781
      19.500 -0.2236400E+12       -97.118
      21.500 -0.2967441E+12       -73.198
      23.500 -0.3218118E+12       -64.268
      25.500 -0.3984523E+12       -50.694
      27.500 -0.4222059E+12       -45.801
      29.500 -0.4254070E+12       -42.814
      31.500 -0.4374872E+12       -39.224
      33.500 -0.4178840E+12       -37.679
      35.500 -0.4031592E+12       -36.528
      37.500 -0.3913803E+12       -35.274
      39.500 -0.3490022E+12       -34.623
      41.500 -0.3330178E+12       -31.881
      43.500 -0.3562361E+12       -28.880
      45.500 -0.3374891E+12       -28.247
      47.500 -0.3162186E+12       -27.568
      49.500 -0.2915832E+12       -26.796
      51.500 -0.2697480E+12       -24.808
      53.500 -0.2832751E+12       -21.713
      55.500 -0.2591837E+12       -21.646
      57.500 -0.2539963E+12       -19.671
      59.500 -0.2555038E+12       -19.675
      61.500 -0.2547711E+12       -19.620
      63.500 -0.2500892E+12       -19.469
      65.500 -0.2451250E+12       -19.247
      67.500 -0.2396053E+12       -18.755
      69.500 -0.2401336E+12       -18.127
      71.500 -0.2386954E+12       -17.721
      73.500 -0.2315974E+12       -17.664
      75.500 -0.2239612E+12       -17.201
      77.500 -0.2227831E+12       -16.975
      79.500 -0.2279336E+12       -16.469
      81.500 -0.2272804E+12       -16.001
      83.500 -0.2233279E+12       -15.671
      85.500 -0.2218472E+12       -15.166
      87.500 -0.2215218E+12       -14.923
      89.500 -0.2195249E+12       -14.721
      91.500 -0.2179355E+12       -14.432
      93.500 -0.2191361E+12       -13.952
      95.500 -0.2168846E+12       -13.734
      97.500 -0.2131507E+12       -13.594
      99.500 -0.2039627E+12       -12.939
