 % time (yr) / surface air temperature (degrees C)
       0.500   -3.667008
       1.500   -2.531170
       2.500   -1.270371
       3.500   -0.274085
       4.500    0.627651
       5.500    1.437152
       6.500    2.149258
       7.500    2.781989
       8.500    3.341440
       9.500    3.847829
      10.500    4.299421
      11.500    4.699080
      12.500    5.063068
      13.500    5.397125
      14.500    5.696110
      15.500    5.961139
      16.500    6.201005
      17.500    6.404826
      18.500    6.602325
      19.500    6.781348
      21.500    7.107953
      23.500    7.406932
      25.500    7.697570
      27.500    7.956014
      29.500    8.187324
      31.500    8.403312
      33.500    8.604725
      35.500    8.785044
      37.500    8.954414
      39.500    9.121092
      41.500    9.279619
      43.500    9.426477
      45.500    9.558774
      47.500    9.683465
      49.500    9.804447
      51.500    9.921169
      53.500   10.033976
      55.500   10.137709
      57.500   10.243199
      59.500   10.333905
      61.500   10.417303
      63.500   10.494302
      65.500   10.566235
      67.500   10.635037
      69.500   10.701519
      71.500   10.762853
      73.500   10.819828
      75.500   10.875992
      77.500   10.927232
      79.500   10.975941
      81.500   11.023636
      83.500   11.067495
      85.500   11.110318
      87.500   11.149689
      89.500   11.186797
      91.500   11.222145
      93.500   11.258347
      95.500   11.292385
      97.500   11.323300
      99.500   11.354220
