 % time (yr) / temperature (C) / _surT (C) / _benT (degrees C)
       0.500    3.588392   19.185159    1.503272
       1.500    3.588463   19.178904    1.503384
       2.500    3.588615   19.172068    1.503719
       3.500    3.588812   19.165856    1.504089
       4.500    3.589034   19.161789    1.504499
       5.500    3.589278   19.159583    1.504900
       6.500    3.589538   19.156196    1.505273
       7.500    3.589798   19.149797    1.505582
       8.500    3.590046   19.151002    1.505895
       9.500    3.590280   19.153384    1.506123
      10.500    3.590499   19.149231    1.506333
      11.500    3.590707   19.155689    1.506514
      12.500    3.590911   19.151585    1.506654
      13.500    3.591103   19.158043    1.506750
      14.500    3.591283   19.158551    1.506802
      15.500    3.591447   19.161503    1.506814
      16.500    3.591618   19.155392    1.506791
      17.500    3.591793   19.164473    1.506741
      18.500    3.591952   19.157957    1.506658
      19.500    3.592119   19.160138    1.506546
