 % time (yr) / mean (land) surface air temperature (degrees C)
       0.500    7.989281
       1.500    7.970828
       2.500    7.945538
       3.500    7.925185
       4.500    7.911660
       5.500    7.904651
       6.500    7.905122
       7.500    7.909135
       8.500    7.915052
       9.500    7.924306
      10.500    7.931224
      11.500    7.936728
      12.500    7.941533
      13.500    7.944314
      14.500    7.948755
      15.500    7.949942
      16.500    7.950238
      17.500    7.950370
      18.500    7.949024
      19.500    7.949780
