 % time (yr) / global pO2 sea->air transfer flux (mol yr-1) / global pO2 density (mol m-2 yr-1)
       0.500 -0.1831729E+17     -46.187
    1000.500 -0.1020883E+17     -25.741
    2000.500 -0.7195081E+16     -18.142
    3000.500 -0.5672309E+16     -14.303
    4000.500 -0.4650509E+16     -11.726
    5000.500 -0.3930331E+16      -9.910
    6000.500 -0.3329699E+16      -8.396
    7000.500 -0.2824555E+16      -7.122
    8000.500 -0.2427668E+16      -6.121
    9000.500 -0.2052229E+16      -5.175
   10000.500 -0.1762531E+16      -4.444
   11000.500 -0.1548315E+16      -3.904
   12000.500 -0.1386885E+16      -3.497
   13000.500 -0.1250609E+16      -3.153
   14000.500 -0.1143335E+16      -2.883
   15000.500 -0.1060197E+16      -2.673
   16000.500 -0.9851746E+15      -2.484
   17000.500 -0.9296471E+15      -2.344
   18000.500 -0.8799293E+15      -2.219
   19000.500 -0.8415219E+15      -2.122
   20000.500 -0.8105680E+15      -2.044
   21000.500 -0.7872735E+15      -1.985
   22000.500 -0.7691590E+15      -1.939
   23000.500 -0.7518784E+15      -1.896
   24000.500 -0.7360031E+15      -1.856
   24999.500 -0.7291870E+15      -1.839
