 % time (yr) / temperature (C) / _surT (C) / _benT (degrees C)
       0.500    5.008614    6.850305    4.957490
    1000.500    5.014431    9.275604    4.881957
    2000.500    5.013340   10.675112    4.816868
    3000.500    5.008000   11.534392    4.759400
    4000.500    4.999893   12.132360    4.707558
    5000.500    4.989761   12.572985    4.659378
    6000.500    4.978074   12.925687    4.613624
    7000.500    4.965084   13.208099    4.570386
    8000.500    4.950999   13.442159    4.529084
    9000.500    4.935979   13.635886    4.488978
   10000.500    4.920143   13.799547    4.449306
   11000.500    4.903590   13.940612    4.410605
   12000.500    4.886419   14.056901    4.373035
   13000.500    4.868726   14.158444    4.336374
   14000.500    4.850648   14.254397    4.300417
   15000.500    4.832258   14.327048    4.264956
   16000.500    4.813633   14.391902    4.230106
   17000.500    4.794785   14.437851    4.195346
   18000.500    4.775736   14.469355    4.160603
   19000.500    4.756509   14.492775    4.125582
   20000.500    4.737150   14.519009    4.089836
   21000.500    4.717692   14.546681    4.051951
   22000.500    4.698134   14.562345    4.012820
   23000.500    4.678432   14.561804    3.972641
   24000.500    4.658615   14.563297    3.929715
   24999.500    4.638761   14.570154    3.882458
