 % time (yr) / surface air temperature (degrees C)
       0.500    1.418623
    1000.500    3.275975
    2000.500    4.645902
    3000.500    5.519927
    4000.500    6.113037
    5000.500    6.550272
    6000.500    6.891575
    7000.500    7.168310
    8000.500    7.397628
    9000.500    7.589523
   10000.500    7.752663
   11000.500    7.890660
   12000.500    8.005431
   13000.500    8.098425
   14000.500    8.155765
   15000.500    8.198603
   16000.500    8.216978
   17000.500    8.232790
   18000.500    8.250263
   19000.500    8.266395
   20000.500    8.269559
   21000.500    8.263281
   22000.500    8.262407
   23000.500    8.268033
   24000.500    8.265466
   24999.500    8.254109
