 % time (yr) / mean (land) surface air temperature (degrees C)
       0.500    2.460831
    1000.500    3.871895
    2000.500    5.197317
    3000.500    6.076131
    4000.500    6.647351
    5000.500    7.040296
    6000.500    7.323142
    7000.500    7.537579
    8000.500    7.705097
    9000.500    7.839616
   10000.500    7.948560
   11000.500    8.036520
   12000.500    8.108211
   13000.500    8.160587
   14000.500    8.163889
   15000.500    8.159713
   16000.500    8.126912
   17000.500    8.102117
   18000.500    8.092781
   19000.500    8.089461
   20000.500    8.072060
   21000.500    8.049297
   22000.500    8.032544
   23000.500    8.028990
   24000.500    8.018632
   24999.500    7.998016
