 % time (yr) / global pCO2_13C flux (mol yr-1) / global pCO2_13C (o/oo) NOTE: is the atmospheric forcing flux *net* of the sea-air gas exchange flux.
       0.500  0.3540427E+14       -16.073
    1000.500  0.2485205E+14       -15.860
    2000.500  0.1996008E+14       -15.220
    3000.500  0.1689258E+14       -14.616
    4000.500  0.1457499E+14       -14.085
    5000.500  0.1275629E+14       -13.622
    6000.500  0.1117376E+14       -13.213
    7000.500  0.9757062E+13       -12.853
    8000.500  0.8521277E+13       -12.530
    9000.500  0.7374343E+13       -12.234
   10000.500  0.6364649E+13       -11.955
   11000.500  0.5518985E+13       -11.699
   12000.500  0.4821336E+13       -11.491
   13000.500  0.4250569E+13       -11.322
   14000.500  0.3774297E+13       -11.184
   15000.500  0.3350089E+13       -11.123
   16000.500  0.2971067E+13       -11.108
   17000.500  0.2639208E+13       -11.162
   18000.500  0.2342197E+13       -11.264
   19000.500  0.2078874E+13       -11.415
   20000.500  0.1845949E+13       -11.590
   21000.500  0.1644198E+13       -11.792
   22000.500  0.1455877E+13       -12.081
   23000.500  0.1278135E+13       -12.492
   24000.500  0.1120646E+13       -12.954
   24999.500  0.9885177E+12       -13.451
