 % time (yr) / global pO2 flux (mol yr-1) / global pO2 density (mol m-2 yr-1)  NOTE: is the atmospheric forcing flux *net* of the sea-air gas exchange flux.
       0.500  0.1107220E+15       0.303
       1.500  0.2643661E+15       0.723
       2.500  0.4611795E+15       1.260
       3.500  0.6364296E+15       1.739
       4.500  0.7035088E+15       1.923
       5.500  0.6890994E+15       1.883
       6.500  0.6808765E+15       1.861
       7.500  0.6650202E+15       1.817
       8.500  0.6412596E+15       1.753
       9.500  0.6245789E+15       1.707
      10.500  0.6193092E+15       1.693
      11.500  0.6085078E+15       1.663
      12.500  0.5916456E+15       1.617
      13.500  0.5706586E+15       1.560
      14.500  0.5529652E+15       1.511
      15.500  0.5337216E+15       1.459
      16.500  0.5175993E+15       1.415
      17.500  0.5007914E+15       1.369
      18.500  0.4852492E+15       1.326
      19.500  0.4714130E+15       1.288
      21.500  0.4470148E+15       1.222
      23.500  0.4322511E+15       1.181
      25.500  0.4107690E+15       1.123
      27.500  0.3934263E+15       1.075
      29.500  0.3747748E+15       1.024
      31.500  0.3601037E+15       0.984
      33.500  0.3440935E+15       0.940
      35.500  0.3285782E+15       0.898
      37.500  0.3132408E+15       0.856
      39.500  0.3002513E+15       0.821
      41.500  0.2857383E+15       0.781
      43.500  0.2733763E+15       0.747
      45.500  0.2612429E+15       0.714
      47.500  0.2519659E+15       0.689
      49.500  0.2427455E+15       0.663
      51.500  0.2355275E+15       0.644
      53.500  0.2293692E+15       0.627
      55.500  0.2230232E+15       0.610
      57.500  0.2181854E+15       0.596
      59.500  0.2111508E+15       0.577
      61.500  0.2070311E+15       0.566
      63.500  0.2047713E+15       0.560
      65.500  0.2011888E+15       0.550
      67.500  0.1972906E+15       0.539
      69.500  0.1929330E+15       0.527
      71.500  0.1904388E+15       0.520
      73.500  0.1874191E+15       0.512
      75.500  0.1839526E+15       0.503
      77.500  0.1809036E+15       0.494
      79.500  0.1782577E+15       0.487
      81.500  0.1749580E+15       0.478
      83.500  0.1719184E+15       0.470
      85.500  0.1693619E+15       0.463
      87.500  0.1669568E+15       0.456
      89.500  0.1636077E+15       0.447
      91.500  0.1614579E+15       0.441
      93.500  0.1591103E+15       0.435
      95.500  0.1566376E+15       0.428
      97.500  0.1545128E+15       0.422
      99.500  0.1524151E+15       0.417
