 % time (yr) / global pO2 sea->air transfer flux (mol yr-1) / global pO2 density (mol m-2 yr-1)
       0.500  0.1473136E+15       0.403
       1.500  0.3068405E+15       0.839
       2.500  0.4985165E+15       1.362
       3.500  0.6705684E+15       1.833
       4.500  0.7353272E+15       2.010
       5.500  0.7190947E+15       1.965
       6.500  0.7094694E+15       1.939
       7.500  0.6925277E+15       1.893
       8.500  0.6677127E+15       1.825
       9.500  0.6501565E+15       1.777
      10.500  0.6441807E+15       1.761
      11.500  0.6327937E+15       1.729
      12.500  0.6153414E+15       1.682
      13.500  0.5937925E+15       1.623
      14.500  0.5755707E+15       1.573
      15.500  0.5558947E+15       1.519
      16.500  0.5393661E+15       1.474
      17.500  0.5221903E+15       1.427
      18.500  0.5063942E+15       1.384
      19.500  0.4922902E+15       1.345
      21.500  0.4673720E+15       1.277
      23.500  0.4521738E+15       1.236
      25.500  0.4302850E+15       1.176
      27.500  0.4125906E+15       1.128
      29.500  0.3936476E+15       1.076
      31.500  0.3787250E+15       1.035
      33.500  0.3624907E+15       0.991
      35.500  0.3467831E+15       0.948
      37.500  0.3312522E+15       0.905
      39.500  0.3180887E+15       0.869
      41.500  0.3033826E+15       0.829
      43.500  0.2907817E+15       0.795
      45.500  0.2784034E+15       0.761
      47.500  0.2689024E+15       0.735
      49.500  0.2594884E+15       0.709
      51.500  0.2521101E+15       0.689
      53.500  0.2458088E+15       0.672
      55.500  0.2393371E+15       0.654
      57.500  0.2343953E+15       0.641
      59.500  0.2272735E+15       0.621
      61.500  0.2230673E+15       0.610
      63.500  0.2207326E+15       0.603
      65.500  0.2170765E+15       0.593
      67.500  0.2131177E+15       0.582
      69.500  0.2087057E+15       0.570
      71.500  0.2061583E+15       0.563
      73.500  0.2030978E+15       0.555
      75.500  0.1995938E+15       0.545
      77.500  0.1965094E+15       0.537
      79.500  0.1938322E+15       0.530
      81.500  0.1905073E+15       0.521
      83.500  0.1874479E+15       0.512
      85.500  0.1848733E+15       0.505
      87.500  0.1824535E+15       0.499
      89.500  0.1790898E+15       0.489
      91.500  0.1769265E+15       0.484
      93.500  0.1745696E+15       0.477
      95.500  0.1720882E+15       0.470
      97.500  0.1699622E+15       0.465
      99.500  0.1678618E+15       0.459
