 % time (yr) / global CaCO3 flux (mol yr-1) / global CaCO3 density (mol m-2 yr-1)
       0.500  0.2865590E+15  0.7831544E+00
       1.500  0.2560602E+15  0.6998025E+00
       2.500  0.2151420E+15  0.5879745E+00
       3.500  0.1951883E+15  0.5334418E+00
       4.500  0.1812767E+15  0.4954220E+00
       5.500  0.1703955E+15  0.4656842E+00
       6.500  0.1626350E+15  0.4444750E+00
       7.500  0.1562126E+15  0.4269227E+00
       8.500  0.1508002E+15  0.4121311E+00
       9.500  0.1462356E+15  0.3996561E+00
      10.500  0.1425147E+15  0.3894870E+00
      11.500  0.1395992E+15  0.3815190E+00
      12.500  0.1369163E+15  0.3741867E+00
      13.500  0.1338057E+15  0.3656856E+00
      14.500  0.1309728E+15  0.3579436E+00
      15.500  0.1283437E+15  0.3507583E+00
      16.500  0.1259577E+15  0.3442375E+00
      17.500  0.1237782E+15  0.3382809E+00
      18.500  0.1219266E+15  0.3332206E+00
      19.500  0.1203334E+15  0.3288664E+00
      21.500  0.1176341E+15  0.3214893E+00
      23.500  0.1156741E+15  0.3161328E+00
      25.500  0.1136525E+15  0.3106078E+00
      27.500  0.1123771E+15  0.3071221E+00
      29.500  0.1111098E+15  0.3036588E+00
      31.500  0.1097260E+15  0.2998769E+00
      33.500  0.1082737E+15  0.2959078E+00
      35.500  0.1074198E+15  0.2935740E+00
      37.500  0.1062460E+15  0.2903660E+00
      39.500  0.1051300E+15  0.2873160E+00
      41.500  0.1041249E+15  0.2845691E+00
      43.500  0.1028675E+15  0.2811329E+00
      45.500  0.1016032E+15  0.2776776E+00
      47.500  0.1002831E+15  0.2740696E+00
      49.500  0.9917318E+14  0.2710364E+00
      51.500  0.9814483E+14  0.2682259E+00
      53.500  0.9704019E+14  0.2652070E+00
      55.500  0.9609611E+14  0.2626268E+00
      57.500  0.9538817E+14  0.2606921E+00
      59.500  0.9467580E+14  0.2587452E+00
      61.500  0.9416449E+14  0.2573478E+00
      63.500  0.9366560E+14  0.2559844E+00
      65.500  0.9311738E+14  0.2544861E+00
      67.500  0.9273979E+14  0.2534542E+00
      69.500  0.9236344E+14  0.2524256E+00
      71.500  0.9198347E+14  0.2513872E+00
      73.500  0.9169239E+14  0.2505917E+00
      75.500  0.9142550E+14  0.2498623E+00
      77.500  0.9124905E+14  0.2493800E+00
      79.500  0.9105903E+14  0.2488607E+00
      81.500  0.9085747E+14  0.2483099E+00
      83.500  0.9071096E+14  0.2479095E+00
      85.500  0.9056906E+14  0.2475216E+00
      87.500  0.9051413E+14  0.2473715E+00
      89.500  0.9032818E+14  0.2468633E+00
      91.500  0.9026515E+14  0.2466911E+00
      93.500  0.9015869E+14  0.2464001E+00
      95.500  0.9007181E+14  0.2461627E+00
      97.500  0.9002617E+14  0.2460379E+00
      99.500  0.8999803E+14  0.2459611E+00
