 % time (yr) / temperature (C) / _surT (C) / _benT (degrees C)
       0.500    0.720221   15.366913   -2.077278
       1.500    0.721520   15.380399   -2.077169
       2.500    0.722631   15.395554   -2.077057
       3.500    0.723509   15.412922   -2.076936
       4.500    0.724060   15.434221   -2.076800
       5.500    0.724340   15.456623   -2.076648
       6.500    0.724477   15.479781   -2.076476
       7.500    0.724414   15.503474   -2.076284
       8.500    0.724426   15.523709   -2.076069
       9.500    0.724284   15.540455   -2.075832
      10.500    0.724069   15.556152   -2.075570
      11.500    0.723795   15.570885   -2.075285
      12.500    0.723476   15.583938   -2.074976
      13.500    0.723106   15.595774   -2.074643
      14.500    0.722683   15.606823   -2.074289
      15.500    0.722210   15.617205   -2.073913
      16.500    0.721690   15.626964   -2.073517
      17.500    0.721125   15.636126   -2.073103
      18.500    0.720517   15.644716   -2.072671
      19.500    0.719870   15.652762   -2.072224
      21.500    0.718463   15.667322   -2.071290
      23.500    0.716923   15.680006   -2.070313
      25.500    0.715265   15.691002   -2.069304
      27.500    0.713505   15.700485   -2.068273
      29.500    0.711658   15.708629   -2.067231
      31.500    0.709735   15.715598   -2.066185
      33.500    0.707748   15.721546   -2.065143
      35.500    0.705705   15.726611   -2.064112
      37.500    0.703617   15.730916   -2.063096
      39.500    0.701489   15.734541   -2.062102
      41.500    0.721309   15.686791   -2.059911
      43.500    0.722988   15.579282   -2.051450
      45.500    0.720691   15.507252   -2.048097
      47.500    0.720313   15.460108   -2.045979
      49.500    0.721041   15.433361   -2.044612
      51.500    0.722811   15.421008   -2.043637
      53.500    0.725235   15.415686   -2.042906
      55.500    0.727923   15.415822   -2.042383
      57.500    0.730554   15.421154   -2.042018
      59.500    0.732910   15.431853   -2.041746
      61.500    0.734799   15.448726   -2.041512
      63.500    0.735867   15.475251   -2.041277
      65.500    0.736059   15.511125   -2.041016
      67.500    0.736046   15.544336   -2.040708
      69.500    0.735440   15.572642   -2.040339
      71.500    0.734923   15.600046   -2.039900
      73.500    0.734492   15.608341   -2.039394
      75.500    0.733735   15.620128   -2.038823
      77.500    0.732699   15.634833   -2.038196
      79.500    0.731232   15.653300   -2.037523
      81.500    0.733123   15.661757   -2.036817
      83.500    0.737777   15.615931   -2.036100
      85.500    0.736702   15.589217   -2.035384
      87.500    0.736576   15.575318   -2.034716
      89.500    0.736717   15.570149   -2.034097
      91.500    0.737004   15.570614   -2.033521
      93.500    0.737179   15.575435   -2.032980
      95.500    0.737002   15.587089   -2.032464
      97.500    0.736426   15.603401   -2.031964
      99.500    0.735408   15.622702   -2.031474
