 % time (yr) / mean (land) surface air temperature (degrees C)
       0.500   23.868906
       1.500   23.878925
       2.500   23.889909
       3.500   23.902322
       4.500   23.916940
       5.500   23.934569
       6.500   23.953030
       7.500   23.971840
       8.500   23.988861
       9.500   24.004101
      10.500   24.018626
      11.500   24.032280
      12.500   24.044853
      13.500   24.056403
      14.500   24.067114
      15.500   24.077113
      16.500   24.086471
      17.500   24.095235
      18.500   24.103438
      19.500   24.111111
      21.500   24.124985
      23.500   24.137076
      25.500   24.147582
      27.500   24.156683
      29.500   24.164544
      31.500   24.171313
      33.500   24.177126
      35.500   24.182104
      37.500   24.186350
      39.500   24.189957
      41.500   24.175171
      43.500   24.116623
      45.500   24.056856
      47.500   24.007234
      49.500   23.970942
      51.500   23.947125
      53.500   23.932813
      55.500   23.925619
      57.500   23.924258
      59.500   23.928318
      61.500   23.938039
      63.500   23.955368
      65.500   23.982180
      67.500   24.008709
      69.500   24.032608
      71.500   24.057401
      73.500   24.072141
      75.500   24.083857
      77.500   24.096113
      79.500   24.110709
      81.500   24.124976
      83.500   24.106962
      85.500   24.084975
      87.500   24.069654
      89.500   24.060548
      91.500   24.056716
      93.500   24.057270
      95.500   24.062734
      97.500   24.072971
      99.500   24.086813
